"time","x","y","position","velocity","acceleration","jerk","heading","curvature","rotation"
0,4.88635,2.40833,0,0,3,0,0,0,0
0.02,4.88313,2.40612,0.00390544,0.06,3,0,-145.492,0,0
0.04,4.87992,2.40391,0.00780265,0.12,3,0,-145.494,0,0
0.06,4.8767,2.40169,0.0117138,0.18,3,0,-145.495,0,0
0.08,4.87348,2.39948,0.0156192,0.24,3,0,-145.497,0,0
0.1,4.87027,2.39727,0.0195164,0.3,3,0,-145.498,0,0
0.12,4.86705,2.39506,0.0234219,0.36,3,0,-145.499,0,0
0.14,4.86159,2.39131,0.0300456,0.42,3,0,-145.504,0,0
0.16,4.85382,2.38597,0.0394737,0.48,3,0,-145.511,0,0
0.18,4.84605,2.38063,0.0489017,0.54,3,0,-145.519,0,0
0.2,4.8364,2.374,0.0606098,0.6,3,0,-145.532,0,0
0.22,4.82627,2.36705,0.0728948,0.66,3,0,-145.548,0,0
0.24,4.81477,2.35916,0.0868412,0.72,3,0,-145.57,0,0
0.26,4.80275,2.35093,0.101409,0.78,3,0,-145.596,0,0
0.28,4.78912,2.3416,0.117926,0.84,3,0,-145.634,0,0
0.3,4.77481,2.33182,0.135259,0.9,3,0,-145.678,0,0
0.32,4.75962,2.32146,0.153645,0.96,3,0,-145.729,0,0
0.34,4.74318,2.31027,0.173532,1.02,3,0,-145.792,0,0
0.36,4.72576,2.29844,0.19459,1.08,3,0,-145.868,0,0
0.38,4.70738,2.286,0.216784,1.14,3,0,-145.958,0,0
0.4,4.68799,2.27293,0.240167,1.2,3,0,-146.061,0,0
0.42,4.66759,2.25922,0.264746,1.26,3,0,-146.179,0,0
0.44,4.64615,2.24489,0.290534,1.32,3,0,-146.316,0,0
0.46,4.62367,2.22995,0.317526,1.38,3,0,-146.474,0,0
0.48,4.60015,2.21442,0.345711,1.44,3,0,-146.652,0,0
0.5,4.57559,2.19832,0.375077,1.5,3,0,-146.853,0,0
0.52,4.54999,2.18167,0.405616,1.56,3,0,-147.08,0,0
0.54,4.52322,2.16442,0.437462,1.62,3,0,-147.337,0,0
0.56,4.49538,2.14667,0.470479,1.68,3,0,-147.623,0,0
0.58,4.46648,2.12846,0.504638,1.74,3,0,-147.942,0,0
0.6,4.43641,2.10975,0.540053,1.8,3,0,-148.299,0,0
0.62,4.4052,2.09062,0.57666,1.86,3,0,-148.692,0,0
0.64,4.37285,2.0711,0.614443,1.92,3,0,-149.13,0,0
0.66,4.33929,2.05123,0.653444,1.98,3,0,-149.615,0,0
0.68,4.30452,2.03105,0.693646,2.04,3,0,-150.148,0,0
0.7,4.26854,2.01064,0.735011,2.1,3,0,-150.735,0,0
0.72,4.23123,1.99001,0.777645,2.16,3,0,-151.384,0,0
0.74,4.19266,1.96927,0.821438,2.22,3,0,-152.093,0,0
0.76,4.15277,1.94848,0.86642,2.28,3,0,-152.869,0,0
0.78,4.11151,1.92772,0.912609,2.34,3,0,-153.72,0,0
0.8,4.06883,1.90706,0.960026,2.4,3,0,-154.648,0,0
0.82,4.02473,1.88663,1.00863,2.46,3,0,-155.655,0,0
0.84,3.97917,1.86653,1.05843,2.52,3,0,-156.747,0,0
0.86,3.93211,1.84687,1.10943,2.58,3,0,-157.927,0,0
0.88,3.88353,1.82779,1.16162,2.64,3,0,-159.193,0,0
0.9,3.8334,1.80941,1.21501,2.7,3,0,-160.544,0,0
0.92,3.78172,1.79186,1.26959,2.76,3,0,-161.975,0,0
0.94,3.72842,1.77529,1.32541,2.82,3,0,-163.481,0,0
0.96,3.67355,1.75983,1.38241,2.88,3,0,-165.047,0,0
0.98,3.61712,1.7456,1.44061,2.94,3,0,-166.656,0,0
1,3.55916,1.73272,1.49998,2.99868,0.15624,0,-168.288,0,0
1.02,3.50025,1.72138,1.55998,3,0,0,-169.897,0,0
1.04,3.44104,1.71167,1.61998,3,0,0,-171.451,0,0
1.06,3.3816,1.70352,1.67997,3,0,0,-172.918,0,0
1.08,3.32197,1.69684,1.73998,3,0,0,-174.273,0,0
1.1,3.26221,1.69152,1.79997,3,0,0,-175.507,0,0
1.12,3.20235,1.68742,1.85997,3,0,0,-176.606,0,0
1.14,3.14243,1.68439,1.91997,3,0,0,-177.562,0,0
1.16,3.08247,1.68229,1.97997,3,0,0,-178.372,0,0
1.18,3.02248,1.68094,2.03997,3,0,0,-179.023,0,0
1.2,2.96249,1.6802,2.09997,3,0,0,-179.529,0,0
1.22,2.90249,1.67991,2.15997,3,0,0,-179.899,0,0
1.24,2.84249,1.67994,2.21997,3,0,0,179.868,0,0
1.26,2.78249,1.68015,2.27997,3,0.126258,0,179.751,0,0
1.28,2.72266,1.68043,2.3398,2.97001,3,0,179.743,0,0
1.3,2.66387,1.68066,2.39859,2.91001,3,0,179.829,0,0
1.32,2.60627,1.68076,2.45619,2.85001,3,0,179.989,0,0
1.34,2.54985,1.68067,2.51261,2.79001,3,0,-179.789,0,0
1.36,2.49466,1.68034,2.5678,2.73001,3,0,-179.517,0,0
1.38,2.44067,1.67974,2.62179,2.67001,3,0,-179.209,0,0
1.4,2.38789,1.67887,2.67458,2.61001,3,0,-178.875,0,0
1.42,2.3363,1.6777,2.72618,2.55001,3,0,-178.523,0,0
1.44,2.28592,1.67624,2.77658,2.49001,3,0,-178.161,0,0
1.46,2.23675,1.67451,2.82578,2.43001,3,0,-177.794,0,0
1.48,2.18878,1.6725,2.8738,2.37001,3,0,-177.428,0,0
1.5,2.14202,1.67026,2.92061,2.31001,3,0,-177.067,0,0
1.52,2.09652,1.66779,2.96618,2.25001,3,0,-176.714,0,0
1.54,2.05221,1.66511,3.01057,2.19001,3,0,-176.372,0,0
1.56,2.0091,1.66225,3.05377,2.13001,3,0,-176.042,0,0
1.58,1.96719,1.65923,3.09579,2.07001,3,0,-175.727,0,0
1.6,1.92655,1.65609,3.13655,2.01001,3,0,-175.427,0,0
1.62,1.88703,1.65283,3.17621,1.95001,3,0,-175.143,0,0
1.64,1.84883,1.64949,3.21455,1.89001,3,0,-174.877,0,0
1.66,1.81173,1.64608,3.25181,1.83001,3,0,-174.626,0,0
1.68,1.77596,1.64265,3.28774,1.77001,3,0,-174.394,0,0
1.7,1.74131,1.63918,3.32257,1.71001,3,0,-174.177,0,0
1.72,1.70788,1.63571,3.35618,1.65001,3,0,-173.979,0,0
1.74,1.67572,1.63226,3.38852,1.59001,3,0,-173.796,0,0
1.76,1.64471,1.62884,3.41972,1.53001,3,0,-173.628,0,0
1.78,1.61487,1.62547,3.44975,1.47001,3,0,-173.476,0,0
1.8,1.58621,1.62216,3.4786,1.41001,3,0,-173.338,0,0
1.82,1.5588,1.61892,3.5062,1.35001,3,0,-173.214,0,0
1.84,1.53261,1.61578,3.53258,1.29001,3,0,-173.104,0,0
1.86,1.5076,1.61273,3.55777,1.23001,3,0,-173.006,0,0
1.88,1.48375,1.60979,3.5818,1.17001,3,0,-172.919,0,0
1.9,1.46117,1.60697,3.60456,1.11001,3,0,-172.843,0,0
1.92,1.43983,1.60428,3.62607,1.05001,3,0,-172.779,0,0
1.94,1.41968,1.60171,3.64638,0.990011,3,0,-172.724,0,0
1.96,1.40065,1.59927,3.66557,0.930011,3,0,-172.676,0,0
1.98,1.38259,1.59694,3.68378,0.870011,3,0,-172.634,0,0
2,1.36619,1.59482,3.70031,0.810011,3,0,-172.601,0,0
2.02,1.35079,1.59281,3.71584,0.750011,3,0,-172.574,0,0
2.04,1.33635,1.59093,3.7304,0.690011,3,0,-172.552,0,0
2.06,1.32364,1.58927,3.74322,0.630011,3,0,-172.537,0,0
2.08,1.31147,1.58767,3.7555,0.570011,3,0,-172.522,0,0
2.1,1.30127,1.58633,3.76579,0.510011,3,0,-172.513,0,0
2.12,1.29193,1.5851,3.77521,0.450011,3,0,-172.505,0,0
2.14,1.28262,1.58387,3.7846,0.390011,3,0,-172.498,0,0
2.16,1.27875,1.58336,3.7885,0.330011,3,0,-172.496,0,0
2.18,1.27488,1.58285,3.7924,0.270011,3,0,-172.495,0,0
2.2,1.27101,1.58234,3.79631,0.210011,3,0,-172.494,0,0
2.22,1.26714,1.58183,3.80021,0.150011,3,0,-172.493,0,0
2.24,1.26327,1.58132,3.80411,0.0900112,3,0,-172.492,0,0
2.26,1.2594,1.58081,3.80802,0.0300112,3,0,-172.49,0,0
