"time","x","y","position","velocity","acceleration","jerk","heading","curvature","rotation"
0,1.15968,1.82771,0,0,2.5,0,1.591,0,0
0.02,1.16324,1.82781,0.00356371,0.05,2.5,0,1.59142,0.000878278,0
0.04,1.1668,1.82791,0.00712741,0.1,2.5,0,1.59184,0.00175656,0
0.06,1.17037,1.82801,0.0106911,0.15,2.5,0,1.59226,0.00263483,0
0.08,1.17393,1.82811,0.0142548,0.2,2.5,0,1.59268,0.00351311,0
0.1,1.17749,1.8282,0.0178185,0.25,2.5,0,1.59309,0.00439139,0
0.12,1.18105,1.8283,0.0213822,0.3,2.5,0,1.59351,0.00526967,0
0.14,1.18462,1.8284,0.0249459,0.35,2.5,0,1.59393,0.00614795,0
0.16,1.19257,1.82862,0.0329074,0.4,2.5,0,1.59613,0.00815908,0
0.18,1.20117,1.82886,0.0415109,0.45,2.5,0,1.59858,0.0103356,0
0.2,1.20978,1.8291,0.0501144,0.5,2.5,0,1.60104,0.0125122,0
0.22,1.22078,1.82941,0.0611189,0.55,2.5,0,1.60588,0.0152355,0
0.24,1.23198,1.82973,0.0723313,0.6,2.5,0,1.61094,0.0180062,0
0.26,1.24456,1.83008,0.0849109,0.65,2.5,0,1.61802,0.0210655,0
0.28,1.25785,1.83046,0.0982109,0.7,2.5,0,1.62618,0.0242767,0
0.3,1.27248,1.83087,0.112849,0.75,2.5,0,1.63714,0.0276166,0
0.32,1.28768,1.83131,0.128046,0.8,2.5,0,1.64935,0.0310299,0
0.34,1.30437,1.83179,0.144744,0.85,2.5,0,1.66585,0.0348825,0
0.36,1.32185,1.8323,0.162232,0.9,2.5,0,1.68466,0.0389449,0
0.38,1.34019,1.83284,0.180583,0.95,2.5,0,1.70608,0.043224,0
0.4,1.35969,1.83343,0.200091,1,2.5,0,1.73141,0.0477366,0
0.42,1.38025,1.83406,0.220661,1.05,2.5,0,1.76082,0.0524418,0
0.44,1.40174,1.83472,0.242166,1.1,2.5,0,1.79446,0.0571862,0
0.46,1.42421,1.83543,0.264647,1.15,2.5,0,1.83303,0.0621523,0
0.48,1.44768,1.83619,0.288125,1.2,2.5,0,1.87693,0.0674892,0
0.5,1.47215,1.837,0.312608,1.25,2.5,0,1.9263,0.0731026,0
0.52,1.49763,1.83787,0.338101,1.3,2.5,0,1.98163,0.0789542,0
0.54,1.52411,1.8388,0.3646,1.35,2.5,0,2.04351,0.0849717,0
0.56,1.55159,1.8398,0.392101,1.4,2.5,0,2.11293,0.0911543,0
0.58,1.58007,1.84087,0.420595,1.45,2.5,0,2.19045,0.0977709,0
0.6,1.60952,1.84202,0.450073,1.5,2.5,0,2.27598,0.104742,0
0.62,1.63995,1.84325,0.480526,1.55,2.5,0,2.37006,0.112016,0
0.64,1.67144,1.84458,0.512041,1.6,2.5,0,2.47431,0.119592,0
0.66,1.70394,1.84602,0.544573,1.65,2.5,0,2.58973,0.127414,0
0.68,1.73738,1.84757,0.578052,1.7,2.5,0,2.71617,0.135759,0
0.7,1.77181,1.84924,0.612526,1.75,2.5,0,2.85448,0.144516,0
0.72,1.8073,1.85106,0.648062,1.8,2.5,0,3.00643,0.153704,0
0.74,1.8437,1.85302,0.684512,1.85,2.5,0,3.17101,0.163271,0
0.76,1.88118,1.85515,0.722055,1.9,2.5,0,3.35233,0.173216,0
0.78,1.91957,1.85747,0.760512,1.95,2.5,0,3.54882,0.183658,0
0.8,1.95903,1.85999,0.80005,2,2.5,0,3.76369,0.194576,0
0.82,1.9994,1.86272,0.840516,2.05,2.5,0,3.99538,0.205857,0
0.84,2.04081,1.86571,0.882037,2.1,2.5,0,4.24738,0.217504,0
0.86,2.0832,1.86895,0.924542,2.15,2.5,0,4.51944,0.229414,0
0.88,2.12653,1.87249,0.968016,2.2,2.5,0,4.81218,0.241486,0
0.9,2.17086,1.87634,1.01252,2.25,2.5,0,5.12773,0.253574,0
0.92,2.21618,1.88054,1.05803,2.3,2.5,0,5.46638,0.265454,0
0.94,2.26246,1.88512,1.10454,2.35,2.5,0,5.82782,0.27695,0
0.96,2.30969,1.8901,1.15203,2.4,2.5,0,6.21302,0.287331,0
0.98,2.35788,1.89551,1.20053,2.45,2.5,0,6.61888,0.296532,0
1,2.40701,1.9014,1.25,2.49574,0.418501,0,7.0448,0.30398,0
1.02,2.45658,1.90771,1.29998,2.5,0,0,7.48408,0.309111,0
1.04,2.50613,1.91442,1.34998,2.5,0,0,7.92875,0.311382,0
1.06,2.55563,1.92151,1.39998,2.5,0,0,8.37412,0.310284,0
1.08,2.60506,1.92898,1.44998,2.5,0,0,8.81519,0.305219,0
1.1,2.65444,1.93683,1.49998,2.5,0,0,9.24601,0.295457,0
1.12,2.70377,1.94505,1.54998,2.5,0,0,9.6598,0.281206,0
1.14,2.75303,1.95361,1.59998,2.5,0,0,10.0513,0.263415,0
1.16,2.80223,1.96249,1.64998,2.5,0,0,10.4153,0.243104,0
1.18,2.85138,1.97168,1.69998,2.5,0,0,10.747,0.22022,0
1.2,2.90048,1.98114,1.74998,2.5,0,0,11.0422,0.194087,0
1.22,2.94953,1.99083,1.79998,2.5,0,0,11.2979,0.164913,0
1.24,2.99854,2.00072,1.84998,2.5,0,0,11.5122,0.133779,0
1.26,3.04752,2.01078,1.89998,2.5,0,0,11.681,0.102817,0
1.28,3.09647,2.02096,1.94998,2.5,0,0,11.8082,0.0737777,0
1.3,3.1454,2.03124,1.99998,2.5,0,0,11.8957,0.0467676,0
1.32,3.19432,2.04157,2.04998,2.5,0,0,11.9456,0.0219235,0
1.34,3.24324,2.05193,2.09998,2.5,0,0,11.961,-0.000738857,0
1.36,3.29215,2.06229,2.14998,2.5,-0.342718,0,11.9446,-0.0211671,0
1.38,3.34094,2.0726,2.19984,2.47904,-2.5,0,11.9008,-0.0390504,0
1.4,3.38896,2.08269,2.24892,2.42904,-2.5,0,11.8349,-0.0541745,0
1.42,3.43603,2.09252,2.297,2.37904,-2.5,0,11.7517,-0.0667395,0
1.44,3.48213,2.10208,2.34408,2.32904,-2.5,0,11.6564,-0.0763476,0
1.46,3.52729,2.11135,2.39018,2.27904,-2.5,0,11.5509,-0.0836522,0
1.48,3.57146,2.12033,2.43526,2.22904,-2.5,0,11.439,-0.0892647,0
1.5,3.61465,2.12903,2.47931,2.17904,-2.5,0,11.3237,-0.0932373,0
1.52,3.65691,2.13744,2.5224,2.12904,-2.5,0,11.2069,-0.0958775,0
1.54,3.69822,2.14559,2.56451,2.07904,-2.5,0,11.0903,-0.0973894,0
1.56,3.73851,2.15344,2.60555,2.02904,-2.5,0,10.9753,-0.0978708,0
1.58,3.77788,2.16104,2.64565,1.97904,-2.5,0,10.863,-0.0976121,0
1.6,3.81625,2.16836,2.68471,1.92904,-2.5,0,10.7543,-0.0966653,0
1.62,3.85368,2.17544,2.7228,1.87904,-2.5,0,10.6496,-0.0951899,0
1.64,3.89011,2.18225,2.75987,1.82904,-2.5,0,10.5495,-0.0932528,0
1.66,3.92562,2.18884,2.79598,1.77904,-2.5,0,10.4539,-0.0909782,0
1.68,3.96008,2.19516,2.83101,1.72904,-2.5,0,10.364,-0.0884331,0
1.7,3.99363,2.20127,2.86512,1.67904,-2.5,0,10.279,-0.085644,0
1.72,4.0262,2.20716,2.89821,1.62904,-2.5,0,10.1992,-0.0826568,0
1.74,4.05773,2.21281,2.93025,1.57904,-2.5,0,10.1249,-0.0795064,0
1.76,4.08832,2.21825,2.96132,1.52904,-2.5,0,10.0553,-0.07628,0
1.78,4.11796,2.22349,2.99142,1.47904,-2.5,0,9.99094,-0.0730365,0
1.8,4.14664,2.22853,3.02054,1.42904,-2.5,0,9.93151,-0.069676,0
1.82,4.17432,2.23336,3.04864,1.37904,-2.5,0,9.87682,-0.0662495,0
1.84,4.20097,2.23799,3.07569,1.32904,-2.5,0,9.82679,-0.0627921,0
1.86,4.22666,2.24243,3.10176,1.27904,-2.5,0,9.78098,-0.059358,0
1.88,4.25138,2.24668,3.12684,1.22904,-2.5,0,9.73945,-0.056066,0
1.9,4.27514,2.25075,3.15094,1.17904,-2.5,0,9.70212,-0.0526891,0
1.92,4.2979,2.25463,3.17403,1.12904,-2.5,0,9.6685,-0.0492986,0
1.94,4.31959,2.25832,3.19604,1.07904,-2.5,0,9.63858,-0.0459457,0
1.96,4.3403,2.26183,3.21705,1.02904,-2.5,0,9.61185,-0.0426528,0
1.98,4.36006,2.26518,3.23709,0.979043,-2.5,0,9.58811,-0.0395296,0
2,4.37893,2.26836,3.25622,0.929043,-2.5,0,9.56713,-0.036517,0
2.02,4.39684,2.27137,3.27438,0.879043,-2.5,0,9.54907,-0.0334976,0
2.04,4.41348,2.27417,3.29126,0.829043,-2.5,0,9.53399,-0.0305483,0
2.06,4.42938,2.27684,3.30738,0.779043,-2.5,0,9.52048,-0.0276688,0
2.08,4.44427,2.27934,3.32248,0.729043,-2.5,0,9.50903,-0.0248978,0
2.1,4.45797,2.28163,3.33636,0.679043,-2.5,0,9.4996,-0.0223003,0
2.12,4.47109,2.28382,3.34966,0.629043,-2.5,0,9.49115,-0.0197867,0
2.14,4.48263,2.28575,3.36137,0.579043,-2.5,0,9.48503,-0.017605,0
2.16,4.49369,2.2876,3.37258,0.529043,-2.5,0,9.47962,-0.0155258,0
2.18,4.50347,2.28923,3.38249,0.479043,-2.5,0,9.47552,-0.0136053,0
2.2,4.51195,2.29065,3.3911,0.429043,-2.5,0,9.47274,-0.0118442,0
2.22,4.52044,2.29206,3.3997,0.379043,-2.5,0,9.46996,-0.0100831,0
2.24,4.52621,2.29302,3.40555,0.329043,-2.5,0,9.46834,-0.00857253,0
2.26,4.52972,2.29361,3.40911,0.279043,-2.5,0,9.4677,-0.00726988,0
2.28,4.53324,2.2942,3.41268,0.229043,-2.5,0,9.46705,-0.00596724,0
2.3,4.53675,2.29478,3.41624,0.179043,-2.5,0,9.4664,-0.00466459,0
2.32,4.54027,2.29537,3.4198,0.129043,-2.5,0,9.46575,-0.00336195,0
2.34,4.54378,2.29596,3.42337,0.0790433,-2.5,0,9.4651,-0.00205931,0
2.36,4.5473,2.29654,3.42693,0.0290433,-2.5,0,9.46446,-0.000756661,0
