"time","x","y","position","velocity","acceleration","jerk","heading"
0,11.5,168.5,0,0,57,0,0
0.02,11.6068,168.5,0.106771,1.14,57,0,0.00245262
0.04,11.7135,168.5,0.213542,2.28,57,0,0.00490525
0.06,11.8203,168.5,0.320312,3.42,57,0,0.00735787
0.08,11.9271,168.5,0.427083,4.56,57,0,0.00981049
0.1,12.0339,168.5,0.533854,5.7,57,0,0.0122631
0.12,12.1406,168.5,0.640625,6.84,57,0,0.0147157
0.14,12.2474,168.5,0.747395,7.98,57,0,0.0171684
0.16,12.3542,168.5,0.854166,9.12,57,0,0.019621
0.18,12.4609,168.5,0.960937,10.26,57,0,0.0220736
0.2,12.6635,168.5,1.16346,11.4,57,0,0.02998
0.22,12.9212,168.5,1.42123,12.54,57,0,0.0410329
0.24,13.179,168.5,1.679,13.68,57,0,0.0520857
0.26,13.4368,168.501,1.93676,14.82,57,0,0.0631386
0.28,13.7535,168.501,2.25352,15.96,57,0,0.0829948
0.3,14.0894,168.501,2.58945,17.1,57,0,0.105713
0.32,14.4254,168.502,2.92537,18.24,57,0,0.128431
0.34,14.81,168.503,3.30995,19.38,57,0,0.166334
0.36,15.2084,168.504,3.70844,20.52,57,0,0.208574
0.38,15.6213,168.506,4.12134,21.66,57,0,0.254632
0.4,16.0736,168.508,4.57364,22.8,57,0,0.311105
0.42,16.5286,168.511,5.02868,23.94,57,0,0.368704
0.44,17.0289,168.514,5.52895,25.08,57,0,0.44485
0.46,17.5317,168.518,6.03179,26.22,57,0,0.522409
0.48,18.0757,168.524,6.57581,27.36,57,0,0.622742
0.5,18.6286,168.53,7.12875,28.5,57,0,0.727075
0.52,19.2131,168.538,7.71323,29.64,57,0,0.845575
0.54,19.8167,168.548,8.31698,30.78,57,0,0.977333
0.56,20.4389,168.559,8.93928,31.92,57,0,1.12186
0.58,21.0933,168.573,9.59376,33.06,57,0,1.29043
0.6,21.764,168.589,10.2647,34.2,57,0,1.46977
0.62,22.4555,168.607,10.9564,35.34,57,0,1.6623
0.64,23.1771,168.63,11.6784,36.48,57,0,1.88428
0.66,23.9177,168.656,12.4194,37.62,57,0,2.12412
0.68,24.6788,168.685,13.1811,38.76,57,0,2.38228
0.7,25.4625,168.72,13.9656,39.9,57,0,2.65912
0.72,26.2733,168.76,14.7774,41.04,57,0,2.97018
0.74,27.1051,168.805,15.6104,42.18,57,0,3.30523
0.76,27.9585,168.857,16.4654,43.32,57,0,3.66329
0.78,28.8338,168.916,17.3427,44.46,57,0,4.04879
0.8,29.7312,168.982,18.2425,45.6,57,0,4.46719
0.82,30.6508,169.058,19.1652,46.74,57,0,4.91586
0.84,31.5926,169.143,20.1108,47.88,57,0,5.39373
0.86,32.5565,169.238,21.0794,49.02,57,0,5.91011
0.88,33.5425,169.345,22.0712,50.16,57,0,6.46403
0.9,34.5501,169.464,23.0858,51.3,57,0,7.05129
0.92,35.5792,169.597,24.1235,52.44,57,0,7.67947
0.94,36.6295,169.744,25.184,53.58,57,0,8.35232
0.96,37.7004,169.908,26.2674,54.72,57,0,9.06241
0.98,38.7915,170.09,27.3736,55.86,46.3545,0,9.81625
1,39.9001,170.289,28.4999,56.7489,14.25,0,10.6179
1.02,41.0169,170.507,29.6378,57,0,0,11.4518
1.04,42.1325,170.741,30.7776,57,0,0,12.3162
1.06,43.2443,170.993,31.9176,57,0,0,13.2111
1.08,44.3521,171.262,33.0576,57,0,0,14.1308
1.1,45.4552,171.55,34.1977,57,0,0,15.0753
1.12,46.5535,171.855,35.3376,57,0,0,16.0479
1.14,47.6463,172.18,36.4777,57,0,0,17.0407
1.16,48.7333,172.524,37.6178,57,0,0,18.0516
1.18,49.814,172.886,38.7575,57,0,0,19.0831
1.2,50.8879,173.269,39.8977,57,0,0,20.1312
1.22,51.9545,173.671,41.0375,57,0,0,21.1919
1.24,53.0135,174.093,42.1775,57,0,0,22.2643
1.26,54.0644,174.535,43.3176,57,0,0,23.3466
1.28,55.1068,174.997,44.4578,57,0,0,24.4339
1.3,56.1401,175.478,45.5975,57,0,0,25.5239
1.32,57.1641,175.979,46.7375,57,0,0,26.6142
1.34,58.1784,176.499,47.8773,57,0,0,27.7013
1.36,59.1827,177.039,49.0176,57,0,0,28.7824
1.38,60.1766,177.597,50.1574,57,0,0,29.8548
1.4,61.16,178.174,51.2976,57,0,0,30.9156
1.42,62.1326,178.768,52.4373,57,0,0,31.9595
1.44,63.0943,179.38,53.5772,57,0,0,32.9871
1.46,64.0449,180.01,54.7176,57,0,0,33.9967
1.48,64.9844,180.655,55.8572,57,0,0,34.9842
1.5,65.9129,181.317,56.9975,57,0,0,35.9446
1.52,66.8302,181.994,58.1376,57,0,0,36.8773
1.54,67.7366,182.685,59.2774,57,0,0,37.784
1.56,68.6321,183.39,60.4171,57,0,0,38.6605
1.58,69.5169,184.109,61.5572,57,0,0,39.5021
1.6,70.3912,184.841,62.6974,57,0,0,40.3127
1.62,71.2553,185.584,63.8371,57,0,0,41.0925
1.64,72.1095,186.339,64.9771,57,0,0,41.838
1.66,72.9541,187.105,66.1173,57,0,0,42.5394
1.68,73.7894,187.881,67.2574,57,0,0,43.207
1.7,74.6159,188.666,68.3973,57,0,0,43.8412
1.72,75.4338,189.46,69.5372,57,0,0,44.4367
1.74,76.2438,190.262,70.6771,57,0,0,44.9915
1.76,77.0462,191.072,71.8173,57,0,0,45.5113
1.78,77.8415,191.889,72.9574,57,0,0,45.9969
1.8,78.6302,192.712,74.0973,57,0,0,46.4389
1.82,79.4128,193.541,75.2374,57,0,0,46.8391
1.84,80.1897,194.375,76.3772,57,0,0,47.205
1.86,80.9617,195.214,77.5173,57,0,0,47.5355
1.88,81.7291,196.057,78.6573,57,0,0,47.8243
1.9,82.4925,196.904,79.7975,57,0,0,48.0744
1.92,83.2524,197.753,80.9369,57,0,0,48.2905
1.94,84.0095,198.606,82.0775,57,0,0,48.4698
1.96,84.7642,199.46,83.2172,57,0,0,48.6011
1.98,85.5172,200.316,84.3572,57,0,0,48.6982
2,86.269,201.173,85.4973,57,0,0,48.7615
2.02,87.0201,202.03,86.6368,57,0,0,48.7851
2.04,87.7713,202.888,87.7772,57,0,0,48.768
2.06,88.5229,203.745,88.9171,57,0,0,48.7158
2.08,89.2756,204.601,90.0569,57,0,0,48.6277
2.1,90.0299,205.456,91.1971,57,0,0,48.495
2.12,90.7865,206.309,92.3373,57,0,0,48.3228
2.14,91.5459,207.159,93.4771,57,0,0,48.1161
2.16,92.3086,208.006,94.6169,57,0,0,47.8727
2.18,93.0753,208.85,95.7572,57,0,0,47.5862
2.2,93.8464,209.69,96.8974,57,0,0,47.2614
2.22,94.6226,210.525,98.0375,57,0,0,46.9004
2.24,95.4043,211.354,99.1769,57,0,0,46.4991
2.26,96.1921,212.178,100.317,57,0,0,46.0515
2.28,96.9866,212.996,101.457,57,0,0,45.5678
2.3,97.7882,213.807,102.598,57,0,0,45.0483
2.32,98.5974,214.61,103.738,57,0,0,44.4889
2.34,99.4147,215.404,104.877,57,0,0,43.8866
2.36,100.241,216.19,106.017,57,0,0,43.247
2.38,101.075,216.966,107.157,57,0,0,42.5687
2.4,101.92,217.732,108.297,57,0,0,41.8524
2.42,102.774,218.487,109.437,57,0,0,41.0933
2.44,103.638,219.231,110.577,57,0,0,40.3003
2.46,104.513,219.962,111.717,57,0,0,39.4742
2.48,105.398,220.68,112.857,57,0,0,38.6139
2.5,106.294,221.385,113.997,57,0,0,37.7156
2.52,107.201,222.075,115.137,57,0,0,36.7842
2.54,108.12,222.75,116.277,57,0,0,35.825
2.56,109.05,223.41,117.417,57,0,0,34.8382
2.58,109.991,224.053,118.557,57,0,0,33.8232
2.6,110.944,224.679,119.697,57,0,0,32.7848
2.62,111.908,225.287,120.837,57,0,0,31.7272
2.64,112.883,225.878,121.977,57,0,0,30.6522
2.66,113.869,226.449,123.117,57,0,0,29.5585
2.68,114.866,227.002,124.257,57,0,0,28.453
2.7,115.874,227.536,125.397,57,0,0,27.3396
2.72,116.891,228.049,126.536,57,0,0,26.2206
2.74,117.919,228.543,127.677,57,0,0,25.0988
2.76,118.956,229.016,128.817,57,0,0,23.9781
2.78,120.002,229.469,129.957,57,0,0,22.8612
2.8,121.057,229.902,131.097,57,0,0,21.751
2.82,122.12,230.314,132.237,57,0,0,20.6523
2.84,123.19,230.706,133.377,57,0,0,19.5678
2.86,124.268,231.078,134.517,57,0,0,18.4977
2.88,125.352,231.429,135.656,57,0,0,17.4447
2.9,126.443,231.761,136.797,57,0,0,16.4151
2.92,127.539,232.074,137.937,57,0,0,15.4077
2.94,128.641,232.367,139.077,57,0,0,14.4236
2.96,129.747,232.642,140.217,57,0,0,13.4677
2.98,130.858,232.898,141.357,57,0,0,12.5432
3,131.973,233.137,142.497,57,0,0,11.644
3.02,133.091,233.358,143.637,57,0,0,10.7745
3.04,134.212,233.563,144.776,57,0,0,9.93939
3.06,135.337,233.752,145.917,57,0,0,9.13347
3.08,136.463,233.925,147.056,57,0,0,8.35635
3.1,137.592,234.083,148.196,57,0,0,7.62364
3.12,138.723,234.227,149.336,57,0,0,6.91855
3.14,139.856,234.358,150.477,57,0,0,6.24509
3.16,140.99,234.475,151.617,57,0,0,5.60901
3.18,142.125,234.58,152.757,57,0,0,5.00303
3.2,143.261,234.674,153.897,57,0,0,4.42939
3.22,144.398,234.757,155.037,57,0,0,3.89567
3.24,145.536,234.829,156.177,57,0,0,3.39191
3.26,146.674,234.891,157.317,57,0,0,2.92283
3.28,147.813,234.945,158.457,57,0,0,2.49033
3.3,148.952,234.99,159.597,57,0,0,2.08582
3.32,150.091,235.028,160.736,57,0,0,1.71972
3.34,151.231,235.059,161.877,57,0,0,1.38425
3.36,152.37,235.083,163.016,57,0,0,1.08032
3.38,153.51,235.102,164.156,57,0,0,0.820183
3.4,154.65,235.115,165.296,57,0,0,0.587197
3.42,155.79,235.125,166.436,57,0,0,0.392014
3.44,156.93,235.131,167.576,57,0,0,0.230519
3.46,158.07,235.134,168.716,57,0,0,0.103388
3.48,159.21,235.135,169.856,57,0,0,0.0158321
3.5,160.35,235.134,170.996,57,0,0,-0.0433664
3.52,161.49,235.133,172.136,57,0,0,-0.0511854
3.54,162.63,235.132,173.276,57,0,0,-0.0250195
3.56,163.77,235.132,174.416,57,0,0,0.0671834
3.58,164.91,235.136,175.556,57,0,0,0.237171
3.6,166.05,235.142,176.696,57,0,0,0.386354
3.62,167.19,235.151,177.837,57,0,0,0.517596
3.64,168.33,235.163,178.977,57,0,0,0.623474
3.66,169.47,235.176,180.117,57,0,0,0.710896
3.68,170.61,235.191,181.257,57,0,0,0.773282
3.7,171.75,235.207,182.397,57,0,0,0.816046
3.72,172.89,235.224,183.537,57,0,0,0.836247
3.74,174.029,235.24,184.676,57,0,0,0.83602
3.76,175.169,235.257,185.816,57,0,0,0.811812
3.78,176.309,235.273,186.956,57,0,0,0.770096
3.8,177.449,235.288,188.096,57,0,0,0.698441
3.82,178.589,235.301,189.237,57,0,0,0.610767
3.84,179.729,235.312,190.377,57,0,0,0.495777
3.86,180.869,235.321,191.517,57,0,0,0.360616
3.88,182.009,235.326,192.657,57,0,0,0.203076
3.9,183.149,235.329,193.797,57,0,0,0.0186213
3.92,184.289,235.327,194.937,57,0,0,-0.182465
3.94,185.429,235.322,196.077,57,0,0,-0.416304
3.96,186.569,235.311,197.217,57,0,0,-0.668469
3.98,187.709,235.295,198.357,57,0,0,-0.949274
4,188.849,235.273,199.497,57,0,0,-1.25268
4.02,189.988,235.245,200.636,57,0,0,-1.58304
4.04,191.128,235.211,201.777,57,0,0,-1.93739
4.06,192.267,235.168,202.917,57,0,0,-2.32267
4.08,193.406,235.118,204.057,57,0,0,-2.72962
4.1,194.544,235.06,205.196,57,0,0,-3.17599
4.12,195.682,234.992,206.336,57,0,0,-3.64396
4.14,196.82,234.915,207.477,57,0,0,-4.14989
4.16,197.956,234.827,208.616,57,0,0,-4.68554
4.18,199.092,234.729,209.756,57,0,0,-5.2541
4.2,200.227,234.619,210.897,57,0,0,-5.85861
4.22,201.36,234.496,212.036,57,0,0,-6.50058
4.24,202.492,234.361,213.176,57,0,0,-7.18023
4.26,203.622,234.211,214.316,57,0,0,-7.90426
4.28,204.75,234.048,215.456,57,0,0,-8.66688
4.3,205.876,233.868,216.596,57,0,0,-9.47869
4.32,206.999,233.672,217.736,57,0,0,-10.3357
4.34,208.119,233.459,218.876,57,0,0,-11.2424
4.36,209.235,233.228,220.016,57,0,0,-12.1939
4.38,210.347,232.978,221.156,57,0,0,-13.2179
4.4,211.455,232.707,222.297,57,0,0,-14.2856
4.42,212.557,232.415,223.437,57,0,0,-15.4273
4.44,213.653,232.101,224.577,57,0,0,-16.621
4.46,214.742,231.763,225.717,57,0,0,-17.8901
4.48,215.822,231.401,226.856,57,0,0,-19.2176
4.5,216.894,231.013,227.996,57,0,0,-20.6274
4.52,217.956,230.598,229.136,57,0,0,-22.1163
4.54,219.006,230.155,230.276,57,0,0,-23.6711
4.56,220.044,229.682,231.417,57,0,0,-25.325
4.58,221.067,229.18,232.556,57,0,0,-27.0398
4.6,222.074,228.646,233.696,57,0,0,-28.846
4.62,223.064,228.08,234.836,57,0,0,-30.7287
4.64,224.034,227.482,235.976,57,0,0,-32.6761
4.66,224.983,226.849,237.117,57,0,0,-34.7246
4.68,225.908,226.183,238.256,57,0,0,-36.8268
4.7,226.807,225.483,239.396,57,0,0,-38.9911
4.72,227.679,224.749,240.536,57,0,0,-41.2166
4.74,228.522,223.981,241.676,57,0,0,-43.4764
4.76,229.333,223.181,242.815,57,0,0,-45.7737
4.78,230.112,222.348,243.956,57,0,0,-48.0896
4.8,230.856,221.484,245.096,57,0,0,-50.4121
4.82,231.564,220.591,246.235,57,0,0,-52.7262
4.84,232.236,219.671,247.375,57,0,0,-55.0178
4.86,232.871,218.724,248.515,57,0,0,-57.2786
4.88,233.468,217.753,249.655,57,0,0,-59.4877
4.9,234.028,216.76,250.795,57,0,0,-61.6454
4.92,234.551,215.747,251.935,57,0,0,-63.7399
4.94,235.037,214.716,253.075,57,0,0,-65.7444
4.96,235.487,213.668,254.215,57,0,0,-67.6808
4.98,235.903,212.607,255.355,57,0,0,-69.5236
5,236.284,211.533,256.494,57,0,0,-71.2833
5.02,236.634,210.448,257.634,57,0,0,-72.9549
5.04,236.952,209.353,258.775,57,0,0,-74.5311
5.06,237.241,208.25,259.915,57,0,0,-76.0408
5.08,237.503,207.141,261.054,57,0,0,-77.4255
5.1,237.737,206.025,262.195,57,0,0,-78.7446
5.12,237.947,204.905,263.334,57,0,0,-79.9696
5.14,238.134,203.78,264.475,57,0,0,-81.1215
5.16,238.299,202.652,265.615,57,0,0,-82.1879
5.18,238.444,201.521,266.755,57,0,0,-83.1833
5.2,238.569,200.388,267.895,57,0,0,-84.0964
5.22,238.678,199.253,269.035,57,0,0,-84.9436
5.24,238.77,198.117,270.175,57,0,0,-85.7159
5.26,238.848,196.98,271.314,57,0,0,-86.4187
5.28,238.912,195.842,272.454,57,0,0,-87.0595
5.3,238.964,194.703,273.594,57,0,0,-87.6384
5.32,239.006,193.564,274.734,57,0,0,-88.1439
5.34,239.038,192.424,275.875,57,0,0,-88.6009
5.36,239.062,191.284,277.015,57,0,0,-88.9782
5.38,239.078,190.144,278.155,57,0,0,-89.3065
5.4,239.089,189.005,279.294,57,0,0,-89.5619
5.42,239.095,187.865,280.434,57,0,0,-89.7619
5.44,239.098,186.725,281.574,57,0,0,-89.8956
5.46,239.099,185.585,282.714,57,0,0,-89.9692
5.48,239.099,184.445,283.854,57,0,0,-90.018
5.5,239.098,183.305,284.994,57,0,0,-90.0609
5.52,239.096,182.165,286.134,57,0,0,-90.162
5.54,239.092,181.025,287.274,57,0,0,-90.3017
5.56,239.085,179.885,288.414,57,0,0,-90.4925
5.58,239.073,178.745,289.554,57,0,0,-90.7274
5.6,239.056,177.605,290.694,57,0,0,-91.005
5.62,239.033,176.465,291.834,57,0,0,-91.3353
5.64,239.003,175.325,292.975,57,0,0,-91.6978
5.66,238.966,174.186,294.114,57,0,0,-92.128
5.68,238.919,173.047,295.254,57,0,0,-92.5887
5.7,238.863,171.908,296.395,57,0,0,-93.108
5.72,238.796,170.77,297.535,57,0,0,-93.6714
5.74,238.717,169.633,298.675,57,0,0,-94.2838
5.76,238.626,168.497,299.814,57,0,0,-94.9545
5.78,238.52,167.362,300.954,57,0,0,-95.665
5.8,238.401,166.228,302.094,57,0,0,-96.4454
5.82,238.265,165.096,303.234,57,0,0,-97.2737
5.84,238.112,163.966,304.375,57,0,0,-98.1627
5.86,237.941,162.839,305.515,57,0,0,-99.1062
5.88,237.752,161.715,306.654,57,0,0,-100.116
5.9,237.541,160.595,307.794,57,0,0,-101.176
5.92,237.31,159.479,308.934,57,0,0,-102.317
5.94,237.055,158.367,310.075,57,0,0,-103.513
5.96,236.777,157.262,311.214,57,0,0,-104.782
5.98,236.474,156.163,312.354,57,0,0,-106.115
6,236.145,155.072,313.494,57,0,0,-107.515
6.02,235.788,153.989,314.634,57,0,0,-108.988
6.04,235.403,152.916,315.774,57,0,0,-110.519
6.06,234.989,151.854,316.914,57,0,0,-112.123
6.08,234.545,150.804,318.054,57,0,0,-113.777
6.1,234.07,149.768,319.193,57,0,0,-115.51
6.12,233.563,148.746,320.334,57,0,0,-117.287
6.14,233.025,147.742,321.473,57,0,0,-119.114
6.16,232.454,146.755,322.614,57,0,0,-120.99
6.18,231.851,145.787,323.754,57,0,0,-122.895
6.2,231.216,144.841,324.893,57,0,0,-124.836
6.22,230.549,143.916,326.034,57,0,0,-126.794
6.24,229.851,143.015,327.174,57,0,0,-128.765
6.26,229.122,142.139,328.313,57,0,0,-130.738
6.28,228.363,141.288,329.454,57,0,0,-132.705
6.3,227.576,140.464,330.593,57,0,0,-134.655
6.32,226.761,139.666,331.734,57,0,0,-136.582
6.34,225.92,138.897,332.873,57,0,0,-138.482
6.36,225.054,138.155,334.014,57,0,0,-140.335
6.38,224.165,137.442,335.153,57,0,0,-142.15
6.4,223.254,136.757,336.293,57,0,0,-143.91
6.42,222.323,136.099,337.433,57,0,0,-145.618
6.44,221.373,135.469,338.573,57,0,0,-147.273
6.46,220.405,134.867,339.713,57,0,0,-148.864
6.48,219.421,134.291,340.853,57,0,0,-150.409
6.5,218.423,133.741,341.993,57,0,0,-151.875
6.52,217.41,133.216,343.134,57,0,0,-153.288
6.54,216.386,132.716,344.273,57,0,0,-154.641
6.56,215.35,132.24,345.413,57,0,0,-155.931
6.58,214.304,131.787,346.553,57,0,0,-157.169
6.6,213.249,131.356,347.693,57,0,0,-158.347
6.62,212.185,130.946,348.833,57,0,0,-159.481
6.64,211.114,130.557,349.973,57,0,0,-160.549
6.66,210.035,130.187,351.113,57,0,0,-161.58
6.68,208.951,129.836,352.253,57,0,0,-162.548
6.7,207.86,129.503,353.393,57,0,0,-163.48
6.72,206.765,129.188,354.533,57,0,0,-164.365
6.74,205.665,128.889,355.673,57,0,0,-165.215
6.76,204.56,128.606,356.813,57,0,0,-166.017
6.78,203.452,128.339,357.953,57,0,0,-166.793
6.8,202.341,128.085,359.093,57,0,0,-167.518
6.82,201.226,127.846,360.233,57,0,0,-168.219
6.84,200.109,127.62,361.373,57,0,0,-168.883
6.86,198.989,127.407,362.513,57,0,0,-169.52
6.88,197.867,127.205,363.653,57,0,0,-170.127
6.9,196.743,127.016,364.793,57,0,0,-170.71
6.92,195.617,126.837,365.933,57,0,0,-171.262
6.94,194.489,126.67,367.073,57,0,0,-171.797
6.96,193.36,126.512,368.213,57,0,0,-172.297
6.98,192.23,126.364,369.353,57,0,0,-172.784
7,191.098,126.226,370.493,57,0,0,-173.245
7.02,189.966,126.096,371.632,57,0,0,-173.688
7.04,188.832,125.975,372.773,57,0,0,-174.113
7.06,187.698,125.862,373.912,57,0,0,-174.518
7.08,186.562,125.758,375.053,57,0,0,-174.91
7.1,185.427,125.66,376.192,57,0,0,-175.281
7.12,184.29,125.57,377.333,57,0,0,-175.639
7.14,183.153,125.487,378.473,57,0,0,-175.982
7.16,182.016,125.41,379.613,57,0,0,-176.312
7.18,180.878,125.34,380.753,57,0,0,-176.629
7.2,179.74,125.276,381.893,57,0,0,-176.934
7.22,178.601,125.218,383.033,57,0,0,-177.228
7.24,177.462,125.166,384.173,57,0,0,-177.509
7.26,176.323,125.119,385.313,57,0,0,-177.781
7.28,175.184,125.078,386.453,57,0,0,-178.043
7.3,174.045,125.042,387.593,57,0,0,-178.296
7.32,172.905,125.01,388.733,57,0,0,-178.541
7.34,171.765,124.984,389.873,57,0,0,-178.778
7.36,170.626,124.962,391.012,57,0,0,-179.007
7.38,169.486,124.944,392.153,57,0,0,-179.23
7.4,168.346,124.931,393.293,57,0,0,-179.446
7.42,167.206,124.922,394.433,57,0,0,-179.656
7.44,166.066,124.917,395.573,57,0,0,-179.862
7.46,164.926,124.917,396.713,57,0,0,179.976
7.48,163.786,124.918,397.853,57,0,0,179.861
7.5,162.646,124.922,398.993,57,0,0,179.733
7.52,161.506,124.929,400.133,57,0,0,179.582
7.54,160.366,124.939,401.273,57,0,0,179.413
7.56,159.226,124.952,402.413,57,0,0,179.22
7.58,158.086,124.97,403.553,57,0,0,179.01
7.6,156.946,124.991,404.693,57,0,0,178.779
7.62,155.807,125.018,405.833,57,0,0,178.528
7.64,154.667,125.05,406.973,57,0,0,178.26
7.66,153.528,125.087,408.113,57,0,0,177.97
7.68,152.389,125.131,409.252,57,0,0,177.66
7.7,151.25,125.18,410.392,57,0,0,177.333
7.72,150.111,125.237,411.533,57,0,0,176.986
7.74,148.973,125.3,412.673,57,0,0,176.621
7.76,147.835,125.371,413.813,57,0,0,176.24
7.78,146.698,125.45,414.953,57,0,0,175.837
7.8,145.561,125.537,416.093,57,0,0,175.416
7.82,144.425,125.632,417.233,57,0,0,174.979
7.84,143.29,125.736,418.373,57,0,0,174.52
7.86,142.156,125.85,419.512,57,0,0,174.045
7.88,141.022,125.973,420.653,57,0,0,173.553
7.9,139.89,126.106,421.793,57,0,0,173.041
7.92,138.759,126.249,422.933,57,0,0,172.513
7.94,137.63,126.403,424.072,57,0,0,171.969
7.96,136.501,126.567,425.213,57,0,0,171.404
7.98,135.375,126.743,426.353,57,0,0,170.823
8,134.251,126.931,427.492,57,0,0,170.228
8.02,133.128,127.13,428.633,57,0,0,169.616
8.04,132.008,127.342,429.773,57,0,0,168.988
8.06,130.89,127.566,430.913,57,0,0,168.347
8.08,129.775,127.802,432.053,57,0,0,167.692
8.1,128.663,128.052,433.192,57,0,0,167.021
8.12,127.553,128.315,434.333,57,0,0,166.338
8.14,126.447,128.59,435.473,57,0,0,165.645
8.16,125.345,128.88,436.612,57,0,0,164.941
8.18,124.246,129.183,437.752,57,0,0,164.227
8.2,123.151,129.5,438.892,57,0,0,163.506
8.22,122.06,129.83,440.032,57,0,0,162.778
8.24,120.973,130.175,441.173,57,0,0,162.044
8.26,119.891,130.533,442.312,57,0,0,161.306
8.28,118.813,130.905,443.453,57,0,0,160.567
8.3,117.741,131.292,444.592,57,0,0,159.827
8.32,116.673,131.692,445.733,57,0,0,159.088
8.34,115.611,132.105,446.872,57,0,0,158.352
8.36,114.554,132.533,448.013,57,0,0,157.621
8.38,113.503,132.973,449.152,57,0,0,156.899
8.4,112.457,133.427,450.292,57,0,0,156.185
8.42,111.417,133.894,451.433,57,0,0,155.482
8.44,110.382,134.373,452.572,57,0,0,154.79
8.46,109.354,134.865,453.713,57,0,0,154.115
8.48,108.331,135.369,454.853,57,0,0,153.457
8.5,107.314,135.884,455.993,57,0,0,152.817
8.52,106.303,136.41,457.132,57,0,0,152.2
8.54,105.298,136.947,458.272,57,0,0,151.605
8.56,104.297,137.495,459.413,57,0,0,151.033
8.58,103.303,138.051,460.552,57,0,0,150.488
8.6,102.313,138.618,461.693,57,0,0,149.972
8.62,101.329,139.192,462.832,57,0,0,149.485
8.64,100.349,139.775,463.972,57,0,0,149.027
8.66,99.374,140.366,465.113,57,0,0,148.604
8.68,98.403,140.963,466.252,57,0,0,148.214
8.7,97.4359,141.567,467.393,57,0,0,147.857
8.72,96.4725,142.176,468.532,57,0,0,147.537
8.74,95.5122,142.79,469.672,57,0,0,147.255
8.76,94.5548,143.409,470.812,57,0,0,147.01
