"time","x","y","position","velocity","acceleration","jerk","heading","curvature","rotation"
0,0,4.572,0,0,3.15,0,0,0,0
0.02,0.00250994,4.57199,0.00250998,0.063,3.15,0,0.0173133,0.0604347,0
0.04,0.00501988,4.57197,0.00501996,0.126,3.15,0,0.0346266,0.120869,0
0.06,0.00752982,4.57196,0.00752994,0.189,3.15,0,0.0519398,0.181304,0
0.08,0.0100962,4.57195,0.0100964,0.252,3.15,0,0.0696426,0.240778,0
0.1,0.0161558,4.57192,0.016156,0.315,3.15,0,0.111441,0.240778,0
0.12,0.0228872,4.57189,0.0228875,0.378,3.15,0,0.157873,0.240778,0
0.14,0.0309303,4.57187,0.0309306,0.441,3.15,0,0.213352,0.240778,0
0.16,0.0403379,4.57185,0.0403382,0.504,3.15,0,0.278244,0.240778,0
0.18,0.0510733,4.57185,0.0510737,0.567,3.15,0,0.352295,0.240778,0
0.2,0.0630818,4.57186,0.0630821,0.63,3.15,0,0.435126,0.240778,0
0.22,0.0763074,4.57189,0.0763077,0.693,3.15,0,0.526354,0.240778,0
0.24,0.0907375,4.57195,0.090738,0.756,3.15,0,0.625891,0.240778,0
0.26,0.106523,4.57204,0.106524,0.819,3.15,0,0.734779,0.240778,0
0.28,0.123524,4.57217,0.123526,0.882,3.15,0,0.852053,0.240778,0
0.3,0.141773,4.57235,0.141775,0.945,3.15,0,0.977934,0.240778,0
0.32,0.161293,4.57259,0.161297,1.008,3.15,0,1.11259,0.240778,0
0.34,0.182087,4.57289,0.182092,1.071,3.15,0,1.25603,0.240778,0
0.36,0.204141,4.57327,0.20415,1.134,3.15,0,1.40818,0.240778,0
0.38,0.227437,4.57374,0.227451,1.197,3.15,0,1.56891,0.240778,0
0.4,0.251996,4.5743,0.252016,1.26,3.15,0,1.73835,0.240778,0
0.42,0.277817,4.57496,0.277845,1.323,3.15,0,1.91652,0.240778,0
0.44,0.3049,4.57575,0.30494,1.386,3.15,0,2.10341,0.593494,0
0.46,0.333227,4.5768,0.333286,1.449,3.15,0,2.48902,0.571844,0
0.48,0.362803,4.57817,0.362894,1.512,3.15,0,2.97406,0.571844,0
0.5,0.393627,4.57986,0.393765,1.575,3.15,0,3.47979,0.571844,0
0.52,0.42569,4.58192,0.425894,1.638,3.15,0,4.00614,0.571844,0
0.54,0.45898,4.58437,0.459274,1.701,3.15,0,4.55297,0.598274,0
0.56,0.493514,4.58729,0.493932,1.764,3.15,0,5.28739,0.776919,0
0.58,0.529241,4.5908,0.529831,1.827,3.15,0,6.08639,0.776919,0
0.6,0.566185,4.59496,0.567009,1.89,3.15,0,6.91388,0.776919,0
0.62,0.604307,4.59983,0.60544,1.953,3.15,0,7.76925,0.807471,0
0.64,0.643588,4.6055,0.64513,2.016,3.15,0,8.82571,0.969169,0
0.66,0.683995,4.61214,0.686079,2.079,3.15,0,9.96265,0.969169,0
0.68,0.725495,4.61982,0.728285,2.142,3.15,0,11.1345,0.969169,0
0.7,0.768062,4.62863,0.771755,2.205,3.15,0,12.4101,1.1359,0
0.72,0.811631,4.63876,0.816487,2.268,3.15,0,13.8658,1.1359,0
0.74,0.856141,4.65032,0.862475,2.331,3.15,0,15.3623,1.1359,0
0.76,0.901533,4.66342,0.909721,2.394,3.15,0,16.945,1.25878,0
0.78,0.947725,4.67824,0.958234,2.457,3.15,0,18.6938,1.25832,0
0.8,0.994621,4.6949,1.008,2.52,3.15,0,20.4879,1.25832,0
0.82,1.04213,4.71352,1.05903,2.583,3.15,0,22.3724,1.31789,0
0.84,1.09013,4.73424,1.11132,2.646,3.15,0,24.3466,1.31789,0
0.86,1.13853,4.75717,1.16488,2.709,3.15,0,26.3677,1.3527,0
0.88,1.18718,4.7824,1.21968,2.772,3.15,0,28.4164,1.30406,0
0.9,1.23599,4.80999,1.27575,2.835,3.15,0,30.5113,1.30406,0
0.92,1.28482,4.84002,1.33308,2.898,3.15,0,32.5666,1.21908,0
0.94,1.33361,4.87246,1.39167,2.961,3.15,0,34.6128,1.21908,0
0.96,1.38222,4.90737,1.45152,3.024,3.15,0,36.6095,1.07669,0
0.98,1.43063,4.94466,1.51263,3.087,3.15,0,38.4945,1.07669,0
1,1.47875,4.98432,1.575,3.1475,0.7875,0,40.3396,0.896059,0
1.02,1.52614,5.02583,1.638,3.15,0,0,41.9568,0.896059,0
1.04,1.57233,5.06867,1.701,3.15,0,0,43.4928,0.705406,0
1.06,1.61742,5.11266,1.764,3.15,0,0,44.5578,0.590137,0
1.08,1.66169,5.15748,1.827,3.15,0,0,45.6229,0.590137,0
1.1,1.70512,5.20312,1.89,3.15,0,0,46.688,0.590137,0
1.12,1.74769,5.24956,1.953,3.15,0,0,47.7467,0.508469,0
1.14,1.78965,5.29655,2.016,3.15,0,0,48.122,0.169501,0
1.16,1.83136,5.34377,2.079,3.15,0,0,48.428,0.169501,0
1.18,1.87282,5.39121,2.142,3.15,0,0,48.7339,0.169501,0
1.2,1.91402,5.43887,2.205,3.15,0,0,49.0398,0.169501,0
1.22,1.95471,5.48696,2.268,3.15,0,0,48.5827,-0.476267,0
1.24,1.99582,5.5347,2.331,3.15,0,0,47.7231,-0.476267,0
1.26,2.03764,5.58182,2.394,3.15,0,0,46.8636,-0.476267,0
1.28,2.08016,5.6283,2.457,3.15,0,0,46.004,-0.476267,0
1.3,2.12338,5.67414,2.52,3.15,0,0,45.1444,-0.476267,0
1.32,2.16728,5.71933,2.583,3.15,0,0,44.2848,-0.476267,0
1.34,2.21185,5.76385,2.646,3.15,0,0,43.4253,-0.476267,0
1.36,2.25708,5.8077,2.709,3.15,0,0,42.5657,-0.476267,0
1.38,2.3031,5.85072,2.772,3.15,0,0,41.3383,-1.2453,0
1.4,2.35076,5.89192,2.835,3.15,0,0,39.0908,-1.2453,0
1.42,2.4,5.93121,2.898,3.15,0,0,36.8432,-1.2453,0
1.44,2.45074,5.96854,2.961,3.15,0,0,34.5956,-1.2453,0
1.46,2.50291,6.00386,3.024,3.15,0,0,32.3481,-1.2453,0
1.48,2.55642,6.0371,3.087,3.15,0,0,30.1005,-1.2453,0
1.5,2.6112,6.06821,3.15,3.15,0,0,27.8529,-1.2453,0
1.52,2.66715,6.09716,3.213,3.15,0,0,25.6054,-1.2453,0
1.54,2.72428,6.1237,3.276,3.15,0,0,23.3778,-2.80087,0
1.56,2.78289,6.14678,3.339,3.15,0,0,21.288,-1.15791,0
1.58,2.84231,6.16771,3.402,3.15,0,0,19.1982,-1.15791,0
1.6,2.90245,6.18646,3.465,3.15,0,0,17.1083,-1.15791,0
1.62,2.96324,6.203,3.528,3.15,0,0,15.0185,-1.15791,0
1.64,3.02459,6.21731,3.591,3.15,0,0,12.9286,-1.15791,0
1.66,3.08642,6.22938,3.654,3.15,0,0,10.8388,-1.15791,0
1.68,3.14865,6.23919,3.717,3.15,0,0,8.74896,-1.15791,0
1.7,3.21119,6.24672,3.78,3.15,0,0,6.65912,-1.15791,0
1.72,3.27398,6.25185,3.843,3.15,0,0,5.296,-0.317237,0
1.74,3.33685,6.25581,3.906,3.15,0,0,4.72345,-0.317237,0
1.76,3.39977,6.25914,3.969,3.15,0,0,4.15089,-0.317237,0
1.78,3.46271,6.26184,4.032,3.15,0,0,3.57834,-0.317237,0
1.8,3.52567,6.26391,4.095,3.15,0,0,3.00578,-0.317237,0
1.82,3.58866,6.26535,4.158,3.15,0,0,2.43323,-0.317237,0
1.84,3.65165,6.26617,4.221,3.15,0,0,1.86067,-0.317237,0
1.86,3.71465,6.26635,4.284,3.15,0,0,1.28812,-0.317237,0
1.88,3.77765,6.2659,4.347,3.15,0,0,0.715562,-0.317237,0
1.9,3.84064,6.26483,4.41,3.15,0,0,0.143007,-0.317237,0
1.92,3.90361,6.26605,4.473,3.15,0,0,-0.0907738,-0.0670339,0
1.94,3.96658,6.26806,4.536,3.15,0,0,-0.211758,-0.0670339,0
1.96,4.02955,6.26993,4.599,3.15,0,0,-0.332742,-0.0670339,0
1.98,4.09253,6.27167,4.662,3.15,0,0,-0.453726,-0.0670339,0
2,4.15551,6.27327,4.725,3.15,0,0,-0.57471,-0.0670339,0
2.02,4.21849,6.27474,4.788,3.15,0,0,-0.695694,-0.0670339,0
2.04,4.28148,6.27608,4.851,3.15,0,0,-0.816678,-0.0670339,0
2.06,4.34446,6.27729,4.914,3.15,0,0,-0.937662,-0.0670339,0
2.08,4.40746,6.27836,4.977,3.15,0,0,-1.05865,-0.0670339,0
2.1,4.47045,6.2793,5.04,3.15,0,0,-1.17963,-0.0670339,0
2.12,4.53344,6.28011,5.103,3.15,0,0,-1.30061,-0.0670339,0
2.14,4.59644,6.28079,5.166,3.15,0,0,-1.4216,-0.0670339,0
2.16,4.65944,6.28128,5.229,3.15,0,0,-2.75713,-1.24715,0
2.18,4.72241,6.27977,5.292,3.15,0,0,-5.00803,-1.24715,0
2.2,4.78528,6.27579,5.355,3.15,0,0,-7.25893,-1.24715,0
2.22,4.84795,6.26934,5.418,3.15,0,0,-9.50983,-1.24715,0
2.24,4.91031,6.26044,5.481,3.15,0,0,-11.7607,-1.24715,0
2.26,4.97228,6.24909,5.544,3.15,0,0,-14.0116,-1.24715,0
2.28,5.03375,6.23532,5.607,3.15,0,0,-16.2625,-1.24715,0
2.3,5.09463,6.21914,5.67,3.15,0,0,-18.5134,-1.24715,0
2.32,5.15484,6.20059,5.733,3.15,0,0,-20.7643,-1.24715,0
2.34,5.21426,6.17968,5.796,3.15,0,0,-23.0152,-1.24715,0
2.36,5.27282,6.15646,5.859,3.15,0,0,-25.2661,-1.24715,0
2.38,5.32961,6.12928,5.922,3.15,0,0,-28.7172,-2.47916,0
2.4,5.38361,6.09686,5.985,3.15,0,0,-33.1918,-2.47916,0
2.42,5.43492,6.06033,6.048,3.15,0,0,-37.6664,-2.47916,0
2.44,5.48321,6.01991,6.111,3.15,0,0,-42.141,-2.47916,0
2.46,5.52821,5.97584,6.174,3.15,0,0,-46.6156,-2.47916,0
2.48,5.56964,5.92839,6.237,3.15,0,0,-51.0902,-2.47916,0
2.5,5.60723,5.87786,6.3,3.15,0,0,-55.5648,-2.47916,0
2.52,5.64077,5.82454,6.363,3.15,0,0,-60.0394,-2.47916,0
2.54,5.67005,5.76878,6.426,3.15,0,0,-64.514,-2.47916,0
2.56,5.69488,5.7109,6.489,3.15,0,0,-68.9887,-2.47916,0
2.58,5.71309,5.65062,6.552,3.15,0,0,-71.2574,-0.980304,0
2.6,5.72871,5.58959,6.615,3.15,0,0,-73.0266,-0.980304,0
2.62,5.74244,5.52811,6.678,3.15,0,0,-74.7959,-0.980304,0
2.64,5.75426,5.46623,6.741,3.15,0,0,-76.5652,-0.980304,0
2.66,5.76416,5.40401,6.804,3.15,0,0,-78.3345,-0.980304,0
2.68,5.77214,5.34152,6.867,3.15,0,0,-80.1038,-0.980304,0
2.7,5.77819,5.27882,6.93,3.15,0,0,-81.873,-0.980304,0
2.72,5.7823,5.21595,6.993,3.15,0,0,-83.6423,-0.980304,0
2.74,5.78446,5.15299,7.056,3.15,0,0,-85.4116,-0.980304,0
2.76,5.78468,5.09,7.119,3.15,0,0,-87.1809,-0.980304,0
2.78,5.78295,5.02702,7.182,3.15,0,0,-88.9502,-0.980304,0
2.8,5.78228,4.9641,7.245,3.15,0,0,-90.593,-0.807894,0
2.82,5.78426,4.90113,7.308,3.15,0,0,-92.0511,-0.807894,0
2.84,5.78465,4.83814,7.371,3.15,0,0,-93.5092,-0.807894,0
2.86,5.78343,4.77515,7.434,3.15,0,0,-94.9673,-0.807894,0
2.88,5.78061,4.71221,7.497,3.15,0,0,-96.4254,-0.807894,0
2.9,5.77618,4.64937,7.56,3.15,0,0,-97.8835,-0.807894,0
2.92,5.77016,4.58666,7.623,3.15,0,0,-99.3416,-0.807894,0
2.94,5.76255,4.52413,7.686,3.15,0,0,-100.8,-0.807894,0
2.96,5.75335,4.4618,7.749,3.15,0,0,-102.258,-0.807894,0
2.98,5.74256,4.39973,7.812,3.15,0,0,-103.716,-0.807894,0
3,5.7302,4.33796,7.875,3.15,0,0,-105.174,-0.807894,0
3.02,5.71627,4.27652,7.938,3.15,0,0,-106.632,-0.807894,0
3.04,5.69865,4.21608,8.001,3.15,0,0,-109.549,-2.25567,0
3.06,5.67572,4.15742,8.064,3.15,0,0,-113.62,-2.25567,0
3.08,5.64868,4.10053,8.127,3.15,0,0,-117.692,-2.25567,0
3.1,5.61768,4.0457,8.19,3.15,0,0,-121.763,-2.25567,0
3.12,5.58286,3.99321,8.253,3.15,0,0,-125.834,-2.25567,0
3.14,5.5444,3.94333,8.316,3.15,0,0,-129.905,-2.25567,0
3.16,5.50249,3.89631,8.379,3.15,0,0,-133.976,-2.25567,0
3.18,5.45736,3.85237,8.442,3.15,0,0,-138.048,-2.25567,0
3.2,5.40922,3.81176,8.505,3.15,0,0,-142.119,-2.25567,0
3.22,5.35831,3.77466,8.568,3.15,0,0,-146.19,-2.25567,0
3.24,5.30415,3.74252,8.631,3.15,0,0,-148.659,-1.12213,0
3.26,5.24857,3.71288,8.694,3.15,0,0,-150.685,-1.12213,0
3.28,5.19197,3.68522,8.757,3.15,0,0,-152.71,-1.12213,0
3.3,5.13443,3.65957,8.82,3.15,0,0,-154.735,-1.12213,0
3.32,5.07602,3.63598,8.883,3.15,0,0,-156.76,-1.12213,0
3.34,5.01681,3.61446,8.946,3.15,0,0,-158.786,-1.12213,0
3.36,4.95688,3.59505,9.009,3.15,0,0,-160.811,-1.12213,0
3.38,4.89629,3.57778,9.072,3.15,0,0,-162.836,-1.12213,0
3.4,4.83514,3.56265,9.135,3.15,0,0,-164.861,-1.12213,0
3.42,4.77349,3.54969,9.198,3.15,0,0,-166.887,-1.12213,0
3.44,4.71142,3.53892,9.261,3.15,0,0,-168.912,-0.948647,0
3.46,4.64933,3.52828,9.324,3.15,0,0,-170.066,-0.464476,0
3.48,4.58718,3.51797,9.387,3.15,0,0,-170.904,-0.464476,0
3.5,4.52489,3.50857,9.45,3.15,0,0,-171.742,-0.464476,0
3.52,4.46246,3.50009,9.513,3.15,0,0,-172.58,-0.464476,0
3.54,4.39992,3.49252,9.576,3.15,0,0,-173.419,-0.464476,0
3.56,4.33727,3.48586,9.639,3.15,0,0,-174.257,-0.464476,0
3.58,4.27453,3.48012,9.702,3.15,0,0,-175.095,-0.464476,0
3.6,4.21172,3.4753,9.765,3.15,0,0,-175.934,-0.464476,0
3.62,4.14884,3.4714,9.828,3.15,0,0,-176.772,-0.464476,0
3.64,4.08591,3.46842,9.891,3.15,0,0,-177.61,-0.464476,0
3.66,4.02295,3.46636,9.954,3.15,0,0,-178.449,-0.464476,0
3.68,3.95996,3.46522,10.017,3.15,0,0,-179.287,-0.464476,0
3.7,3.89696,3.4649,10.08,3.15,0,0,179.885,-0.291896,0
3.72,3.83396,3.46486,10.143,3.15,0,0,179.113,-0.427414,0
3.74,3.77096,3.46567,10.206,3.15,0,0,178.342,-0.427414,0
3.76,3.70799,3.46732,10.269,3.15,0,0,177.571,-0.427414,0
3.78,3.64504,3.46982,10.332,3.15,0,0,176.799,-0.427414,0
3.8,3.58213,3.47317,10.395,3.15,0,0,176.028,-0.427414,0
3.82,3.51927,3.47737,10.458,3.15,0,0,175.256,-0.427414,0
3.84,3.45647,3.48241,10.521,3.15,0,0,174.485,-0.427414,0
3.86,3.39374,3.4883,10.584,3.15,0,0,173.714,-0.427414,0
3.88,3.33111,3.49503,10.647,3.15,0,0,172.942,-0.427414,0
3.9,3.26861,3.50295,10.71,3.15,0,0,171.762,-0.746971,0
3.92,3.20632,3.51239,10.773,3.15,0,0,170.414,-0.746971,0
3.94,3.14427,3.52329,10.836,3.15,0,0,169.066,-0.746971,0
3.96,3.0825,3.53564,10.899,3.15,0,0,167.718,-0.746971,0
3.98,3.02103,3.54945,10.962,3.15,0,0,166.37,-0.746971,0
4,2.9599,3.5647,11.025,3.15,0,0,165.022,-0.746971,0
4.02,2.89916,3.58138,11.088,3.15,0,0,163.674,-0.746971,0
4.04,2.83882,3.59949,11.151,3.15,0,0,162.325,-0.746971,0
4.06,2.77906,3.61941,11.214,3.15,0,0,161.041,-2.66036,0
4.08,2.72048,3.6426,11.277,3.15,0,0,160.097,-0.522709,0
4.1,2.6623,3.66675,11.34,3.15,0,0,159.154,-0.522709,0
4.12,2.60452,3.69186,11.403,3.15,0,0,158.211,-0.522709,0
4.14,2.54716,3.71792,11.466,3.15,0,0,157.267,-0.522709,0
4.16,2.49024,3.74491,11.529,3.15,0,0,156.324,-0.522709,0
4.18,2.43377,3.77284,11.592,3.15,0,0,155.38,-0.522709,0
4.2,2.37776,3.8017,11.655,3.15,0,0,154.437,-0.522709,0
4.22,2.32225,3.83147,11.718,3.15,0,0,153.494,-0.522709,0
4.24,2.26722,3.86216,11.781,3.15,0,0,152.55,-0.522709,0
4.26,2.21271,3.89374,11.844,3.15,0,0,151.607,-0.522709,0
4.28,2.15873,3.92622,11.907,3.15,0,0,150.663,-0.522709,0
4.3,2.10529,3.95958,11.97,3.15,0,0,149.72,-0.522709,0
4.32,2.05241,3.99382,12.033,3.15,0,0,148.777,-0.522709,0
4.34,2.0001,4.02893,12.096,3.15,0,0,147.833,-0.522709,0
4.36,1.94825,4.06471,12.159,3.15,0,0,147.031,2.58052,0
4.38,1.89537,4.09897,12.222,3.15,0,0,147.517,0.273032,0
4.4,1.8422,4.13276,12.285,3.15,0,0,148.01,0.273032,0
4.42,1.78874,4.16609,12.348,3.15,0,0,148.502,0.273032,0
4.44,1.73495,4.19888,12.411,3.15,0,0,149.286,0.611193,0
4.46,1.68057,4.23069,12.474,3.15,0,0,150.389,0.611193,0
4.48,1.62559,4.26144,12.537,3.15,0,0,151.493,0.611193,0
4.5,1.57003,4.29113,12.6,3.15,0,0,152.596,0.614989,0
4.52,1.51391,4.31948,12.6629,3.12199,-3.15,0,154.044,0.839887,0
4.54,1.45803,4.34589,12.7247,3.05899,-3.15,0,155.531,0.839887,0
4.56,1.40265,4.37035,12.7852,2.99599,-3.15,0,156.988,0.839887,0
4.58,1.34782,4.39293,12.8445,2.93299,-3.15,0,158.42,1.02446,0
4.6,1.29359,4.41356,12.9025,2.86999,-3.15,0,159.929,0.90994,0
4.62,1.24002,4.43236,12.9593,2.80699,-3.15,0,161.409,0.932681,0
4.64,1.18719,4.44939,13.0148,2.74399,-3.15,0,162.84,0.898916,0
4.66,1.13516,4.46475,13.0691,2.68099,-3.15,0,164.237,0.898916,0
4.68,1.084,4.47854,13.1221,2.61799,-3.15,0,165.552,0.850077,0
4.7,1.03377,4.49088,13.1738,2.55499,-3.15,0,166.812,0.850077,0
4.72,0.984505,4.50185,13.2243,2.49199,-3.15,0,168.017,0.780771,0
4.74,0.936269,4.51158,13.2735,2.42899,-3.15,0,169.105,0.771988,0
4.76,0.889095,4.52019,13.3214,2.36599,-3.15,0,170.166,0.771988,0
4.78,0.843015,4.5277,13.3681,2.30299,-3.15,0,171.094,0.618506,0
4.8,0.798071,4.5343,13.4135,2.23999,-3.15,0,171.899,0.618506,0
4.82,0.754285,4.54012,13.4577,2.17699,-3.15,0,172.682,0.618506,0
4.84,0.711674,4.5452,13.5006,2.11399,-3.15,0,173.442,0.618506,0
4.86,0.67026,4.54958,13.5423,2.05099,-3.15,0,174.18,0.618506,0
4.88,0.630046,4.55333,13.5827,1.98799,-3.15,0,174.896,0.618506,0
4.9,0.59104,4.55645,13.6218,1.92499,-3.15,0,175.563,1.90122,0
4.92,0.553239,4.55882,13.6597,1.86199,-3.15,0,175.848,0.261864,0
4.94,0.516701,4.56093,13.6963,1.79899,-3.15,0,176.122,0.261864,0
4.96,0.481396,4.5628,13.7316,1.73599,-3.15,0,176.387,0.261864,0
4.98,0.447353,4.56445,13.7657,1.67299,-3.15,0,176.643,0.261864,0
5,0.414549,4.56589,13.7985,1.60999,-3.15,0,176.889,0.261864,0
5.02,0.382998,4.56715,13.8301,1.54699,-3.15,0,177.126,0.261864,0
5.04,0.352709,4.56823,13.8604,1.48399,-3.15,0,177.354,0.261864,0
5.06,0.323675,4.56916,13.8895,1.42099,-3.15,0,177.572,0.261864,0
5.08,0.29591,4.56994,13.9172,1.35799,-3.15,0,177.78,0.261864,0
5.1,0.269393,4.57059,13.9438,1.29499,-3.15,0,177.979,0.261864,0
5.12,0.244116,4.57113,13.9691,1.23199,-3.15,0,178.169,0.261864,0
5.14,0.220126,4.57156,13.993,1.16899,-3.15,0,178.349,0.261864,0
5.16,0.197385,4.5719,14.0158,1.10599,-3.15,0,178.519,0.261864,0
5.18,0.175894,4.57216,14.0373,1.04299,-3.15,0,178.68,0.261864,0
5.2,0.155667,4.57235,14.0575,0.979986,-3.15,0,178.832,0.261864,0
5.22,0.13671,4.57247,14.0765,0.916986,-3.15,0,178.974,0.261864,0
5.24,0.119011,4.57255,14.0942,0.853986,-3.15,0,179.107,0.261864,0
5.26,0.102525,4.57258,14.1107,0.790986,-3.15,0,179.231,0.261864,0
5.28,0.0873905,4.57258,14.1258,0.727986,-3.15,0,179.344,0.261864,0
5.3,0.0733956,4.57256,14.1398,0.664986,-3.15,0,179.449,0.261864,0
5.32,0.0608025,4.57251,14.1524,0.601986,-3.15,0,179.544,0.261864,0
5.34,0.0494407,4.57245,14.1637,0.538986,-3.15,0,179.629,0.261864,0
5.36,0.0393308,4.57239,14.1738,0.475986,-3.15,0,179.705,0.261864,0
5.38,0.0304714,4.57232,14.1827,0.412986,-3.15,0,179.771,0.261864,0
5.4,0.0227199,4.57225,14.1905,0.349986,-3.15,0,179.83,0.261864,0
5.42,0.0166605,4.57219,14.1965,0.286986,-3.15,0,179.875,0.261864,0
5.44,0.0121231,4.57214,14.2011,0.223986,-3.15,0,179.909,0.233682,0
5.46,0.00961328,4.57211,14.2036,0.160986,-3.15,0,179.928,0.167955,0
5.48,0.00710346,4.57208,14.2061,0.0979859,-3.15,0,179.947,0.102228,0
5.5,0.00459365,4.57206,14.2086,0.0349859,-3.15,0,179.966,0.0365004,0
