"time","x","y","position","velocity","acceleration","jerk","heading","curvature","rotation"
0,0.29,4.857,0,0,1.87048,0,0,0,0
0.02,0.311989,4.85715,0.0219892,0.0373894,1.8199,0,23.56,0,0.0295919
0.04,0.333682,4.8576,0.0436877,0.0746574,1.76753,0,23.4353,0,0.118368
0.06,0.35508,4.85834,0.0650981,0.111683,1.7134,0,23.2266,0,0.266327
0.08,0.376179,4.85939,0.0862227,0.148347,1.6575,0,22.9326,0,0.47347
0.1,0.396976,4.86072,0.107063,0.184531,1.59983,0,22.5512,0,0.739797
0.12,0.417467,4.86234,0.127618,0.22012,1.54044,0,22.08,0,1.06531
0.14,0.437647,4.86425,0.147888,0.255003,1.47934,0,21.5158,0,1.45
0.16,0.457511,4.86643,0.167871,0.289072,1.41656,0,20.8549,0,1.89388
0.18,0.47705,4.86888,0.187563,0.322228,1.35213,0,20.0927,0,2.39694
0.2,0.496259,4.87159,0.206963,0.354376,1.2861,0,19.2241,0,2.95919
0.22,0.51513,4.87455,0.226065,0.385432,1.21851,0,18.2432,0,3.58062
0.24,0.533653,4.87776,0.244863,0.415326,1.14942,0,17.1431,0,4.26123
0.26,0.551819,4.8812,0.26335,0.443997,1.07889,0,15.9164,0,5.00103
0.28,0.569617,4.88485,0.28152,0.471407,1.00699,0,14.5546,0,5.80001
0.3,0.587039,4.8887,0.299363,0.497536,0.9338,0,13.0485,0,6.65817
0.32,0.604071,4.89274,0.316869,0.522391,0.859417,0,11.3881,0,7.57552
0.34,0.620705,4.89696,0.334027,0.54601,0.783938,0,9.56262,0,8.55206
0.36,0.636927,4.90132,0.350826,0.568467,0.707476,0,7.56103,0,9.58777
0.38,0.652727,4.90582,0.367253,0.589879,0.630183,0,5.37192,0,10.6827
0.4,0.668092,4.91043,0.383295,0.610412,0.552218,0,2.98417,0,11.8368
0.42,0.683012,4.91512,0.398936,0.630289,0.473789,0,0.387509,0,13.05
0.44,0.697474,4.91988,0.414162,0.649798,0.395168,0,-2.42673,0,14.3225
0.46,0.711469,4.92468,0.428956,0.669293,0.316793,0,-5.46454,0,15.6541
0.48,0.724985,4.92949,0.443302,0.689206,0.239444,0,-8.72811,0,17.0449
0.5,0.738013,4.93427,0.457181,0.710039,0.165044,0,-12.2144,0,18.4949
0.52,0.750544,4.93901,0.470577,0.73237,0.100592,0,-15.914,0,20.0041
0.54,0.762568,4.94366,0.48347,0.756836,0.0766764,0,-19.8097,0,21.5725
0.56,0.774082,4.9482,0.495844,0.784127,0.119544,0,-23.8763,0,23.2
0.58,0.785077,4.95257,0.50768,0.81496,0.187008,0,-28.0803,0,24.8868
0.6,0.795552,4.95676,0.518959,0.850055,0.25958,0,-32.3812,0,26.6327
0.62,0.805503,4.96071,0.529665,0.890106,0.332885,0,-36.7333,0,28.4378
0.64,0.81493,4.96438,0.539783,0.935754,0.405441,0,-41.0886,0,30.3021
0.66,0.823836,4.96774,0.549301,0.987562,0.476482,0,-45.3999,0,32.2256
0.68,0.832224,4.97073,0.558207,1.04599,0.545471,0,-49.6238,0,34.2082
0.7,0.840103,4.97332,0.566499,1.1114,0.611954,0,-53.723,0,36.2501
0.72,0.847482,4.97544,0.574178,1.18403,0.67551,0,-57.6682,0,38.3511
0.74,0.854375,4.97706,0.581259,1.264,0.735729,0,-61.4383,0,40.5113
0.76,0.860798,4.97813,0.587769,1.35134,0.792201,0,-65.0204,0,42.7307
0.78,0.866772,4.97859,0.59376,1.44597,0.844513,0,-68.4087,0,45.0093
0.8,0.87232,4.97839,0.599312,1.54772,0.892248,0,-71.6034,0,47.347
0.82,0.877471,4.97749,0.604542,1.65634,0.934985,0,-74.6094,0,49.744
0.84,0.882258,4.97582,0.60961,1.7715,0.9723,0,-77.4349,0,52.2001
0.86,0.886718,4.97335,0.614708,1.89281,1.00377,0,-80.0903,0,54.7154
0.88,0.890891,4.97002,0.620048,2.01979,1.02896,0,-82.5875,0,57.2899
0.9,0.894825,4.96578,0.62583,2.15192,1.04747,0,-84.9389,0,59.9236
0.92,0.916829,4.96059,0.648439,2.25189,1.06957,0,-87.5841,0,62.6164
0.94,0.942579,4.95439,0.674924,2.34765,1.08451,0,-90.138,0,65.3685
0.96,0.968261,4.94716,0.701606,2.44604,1.08936,0,-92.5133,0,68.1797
0.98,0.993941,4.93883,0.728601,2.54609,1.08371,0,-94.7201,0,71.0501
1,1.01969,4.92939,0.756029,2.6468,0.523306,0,-96.7701,0,73.9797
1.02,1.04578,4.9189,0.784146,2.7328,0.631772,0,-98.3232,0,76.9389
1.04,1.07242,4.90749,0.813131,2.81341,0.740238,0,-99.7843,0,79.8981
1.06,1.09968,4.89519,0.843037,2.88824,0.848705,0,-101.167,0,82.8573
1.08,1.1276,4.88202,0.873901,2.95697,0.957171,0,-102.482,0,85.8165
1.1,1.15621,4.86802,0.905756,3.0193,1.06564,0,-103.74,0,88.7757
1.12,1.18558,4.85324,0.938637,3.07497,1.1741,0,-104.95,0,91.7349
1.14,1.21572,4.8377,0.972548,3.12377,1.28257,0,-106.12,0,94.694
1.16,1.24669,4.82146,1.00751,3.16551,1.39104,0,-107.256,0,97.6532
1.18,1.27851,4.80455,1.04355,3.20001,1.4995,0,-108.365,0,100.612
1.2,1.31122,4.78702,1.08066,3.22715,1.60797,0,-109.452,0,103.572
1.22,1.34486,4.76893,1.11886,3.24325,2.7511,0,-110.515,0,106.53
1.24,1.37956,4.75055,1.15812,3.23432,2.87048,0,-111.537,0,109.449
1.26,1.41538,4.7321,1.19841,3.21789,2.98329,0,-112.584,0,112.31
1.28,1.45227,4.71365,1.23966,3.19465,3.08947,0,-113.658,0,115.111
1.3,1.4902,4.69525,1.28182,3.16533,3.18912,0,-114.764,0,117.852
1.32,1.52913,4.67698,1.32482,3.13063,3.28234,0,-115.905,0,120.535
1.34,1.56901,4.65889,1.36862,3.09123,3.3694,0,-117.084,0,123.158
1.36,1.60454,4.64104,1.40838,3.03632,3.42511,0,-118.276,0,125.723
1.38,1.62405,4.62346,1.43464,2.94116,3.39368,0,-119.391,0,128.228
1.4,1.64436,4.6062,1.46129,2.84363,3.35788,0,-120.503,0,130.674
1.42,1.66542,4.58929,1.4883,2.74438,3.31815,0,-121.616,0,133.061
1.44,1.68719,4.57278,1.51562,2.644,3.27496,0,-122.731,0,135.388
1.46,1.70961,4.55669,1.54322,2.54305,3.22876,0,-123.85,0,137.656
1.48,1.73264,4.54104,1.57106,2.44202,3.17997,0,-124.975,0,139.866
1.5,1.75623,4.52585,1.59912,2.3414,3.12901,0,-126.108,0,142.016
1.52,1.78031,4.51114,1.62734,2.24158,3.07629,0,-127.25,0,144.106
1.54,1.80486,4.49693,1.65571,2.14295,3.02219,0,-128.402,0,146.138
1.56,1.82981,4.48322,1.68417,2.04583,2.96708,0,-129.564,0,148.11
1.58,1.85513,4.47002,1.71273,1.95051,2.9113,0,-130.738,0,150.024
1.6,1.88078,4.45734,1.74134,1.85724,2.85519,0,-131.923,0,151.878
1.62,1.90669,4.44518,1.76997,1.76623,2.79904,0,-133.121,0,153.673
1.64,1.93285,4.43353,1.7986,1.67765,2.74316,0,-134.33,0,155.408
1.66,1.9592,4.42241,1.8272,1.59163,2.6878,0,-135.551,0,157.085
1.68,1.98571,4.4118,1.85576,1.50829,2.63322,0,-136.782,0,158.702
1.7,2.01234,4.40169,1.88424,1.42769,2.57964,0,-138.023,0,160.26
1.72,2.03906,4.39209,1.91263,1.34987,2.52727,0,-139.273,0,161.759
1.74,2.06583,4.38299,1.94091,1.27486,2.4763,0,-140.53,0,163.199
1.76,2.09262,4.37437,1.96905,1.20264,2.4269,0,-141.792,0,164.58
1.78,2.11941,4.36623,1.99705,1.13319,2.3792,0,-143.057,0,165.901
1.8,2.14616,4.35855,2.02488,1.06646,2.33334,0,-144.323,0,167.164
1.82,2.17286,4.35133,2.05253,1.00237,2.28944,0,-145.587,0,168.367
1.84,2.19947,4.34456,2.08,0.940838,2.24757,0,-146.847,0,169.51
1.86,2.22597,4.33822,2.10724,0.881771,2.20782,0,-148.1,0,170.595
1.88,2.25234,4.3323,2.13427,0.825062,2.17025,0,-149.345,0,171.621
1.9,2.27856,4.3268,2.16106,0.770587,2.13489,0,-150.578,0,172.587
1.92,2.30463,4.32169,2.18762,0.718221,2.10179,0,-151.797,0,173.494
1.94,2.3305,4.31698,2.21393,0.667831,2.07095,0,-153.003,0,174.342
1.96,2.35618,4.31264,2.23996,0.61928,2.04239,0,-154.194,0,175.131
1.98,2.38164,4.30868,2.26573,0.572429,2.01611,0,-155.371,0,175.86
2,2.40688,4.30507,2.29122,0.527138,1.99209,0,-156.537,0,176.531
2.02,2.43188,4.30181,2.31644,0.48327,1.97031,0,-157.699,0,177.142
2.04,2.45664,4.2989,2.34137,0.440686,1.95075,0,-158.864,0,177.694
2.06,2.48113,4.29632,2.36599,0.399254,1.93339,0,-160.049,0,178.187
2.08,2.50536,4.29406,2.39033,0.358844,1.9182,0,-161.276,0,178.621
2.1,2.52932,4.29213,2.41436,0.319337,1.90516,0,-162.581,0,178.995
2.12,2.553,4.29051,2.4381,0.28062,1.89422,0,-164.022,0,179.31
2.14,2.5764,4.2892,2.46154,0.242599,1.88538,0,-165.692,0,179.566
2.16,2.59951,4.2882,2.48467,0.205208,1.8786,0,-167.756,0,179.763
2.18,2.62233,4.2875,2.5075,0.168435,1.87387,0,-170.517,0,179.901
2.2,2.64485,4.2871,2.53003,0.132397,1.87118,0,-174.605,0,179.98
2.22,2.66709,4.287,2.55227,0.0949859,2.45,0,-180,0,180
2.24,2.68923,4.287,2.57441,0.0459859,2.45,0,-180,0,180
