"time","x","y","position","velocity","acceleration","jerk","heading"
0,-11.5,191.5,0,0,57,0,0
0.02,-11.3932,191.5,0.106771,1.14,57,0,0.00245262
0.04,-11.2865,191.5,0.213542,2.28,57,0,0.00490525
0.06,-11.1797,191.5,0.320312,3.42,57,0,0.00735787
0.08,-11.0729,191.5,0.427083,4.56,57,0,0.00981049
0.1,-10.9661,191.5,0.533854,5.7,57,0,0.0122631
0.12,-10.8594,191.5,0.640625,6.84,57,0,0.0147157
0.14,-10.7526,191.5,0.747395,7.98,57,0,0.0171684
0.16,-10.6458,191.5,0.854166,9.12,57,0,0.019621
0.18,-10.5391,191.5,0.960937,10.26,57,0,0.0220736
0.2,-10.3365,191.5,1.16346,11.4,57,0,0.02998
0.22,-10.0788,191.5,1.42123,12.54,57,0,0.0410329
0.24,-9.821,191.5,1.679,13.68,57,0,0.0520857
0.26,-9.56324,191.501,1.93676,14.82,57,0,0.0631386
0.28,-9.24648,191.501,2.25352,15.96,57,0,0.0829948
0.3,-8.91055,191.501,2.58945,17.1,57,0,0.105713
0.32,-8.57463,191.502,2.92537,18.24,57,0,0.128431
0.34,-8.19005,191.503,3.30995,19.38,57,0,0.166334
0.36,-7.79157,191.504,3.70844,20.52,57,0,0.208574
0.38,-7.37867,191.506,4.12134,21.66,57,0,0.254632
0.4,-6.92638,191.508,4.57364,22.8,57,0,0.311105
0.42,-6.47135,191.511,5.02868,23.94,57,0,0.368704
0.44,-5.97108,191.514,5.52895,25.08,57,0,0.44485
0.46,-5.46826,191.518,6.03179,26.22,57,0,0.522409
0.48,-4.92427,191.524,6.57581,27.36,57,0,0.622742
0.5,-4.37137,191.53,7.12875,28.5,57,0,0.727075
0.52,-3.78694,191.538,7.71323,29.64,57,0,0.845575
0.54,-3.18327,191.548,8.31698,30.78,57,0,0.977333
0.56,-2.56107,191.559,8.93928,31.92,57,0,1.12186
0.58,-1.90674,191.573,9.59376,33.06,57,0,1.29043
0.6,-1.236,191.589,10.2647,34.2,57,0,1.46977
0.62,-0.5445,191.607,10.9564,35.34,57,0,1.6623
0.64,0.1771,191.63,11.6784,36.48,57,0,1.88428
0.66,0.9177,191.656,12.4194,37.62,57,0,2.12412
0.68,1.6788,191.685,13.1811,38.76,57,0,2.38228
0.7,2.4625,191.72,13.9656,39.9,57,0,2.65912
0.72,3.2733,191.76,14.7774,41.04,57,0,2.97018
0.74,4.1051,191.805,15.6104,42.18,57,0,3.30523
0.76,4.9585,191.857,16.4654,43.32,57,0,3.66329
0.78,5.8338,191.916,17.3427,44.46,57,0,4.04879
0.8,6.7312,191.982,18.2425,45.6,57,0,4.46719
0.82,7.6508,192.058,19.1652,46.74,57,0,4.91586
0.84,8.5926,192.143,20.1108,47.88,57,0,5.39373
0.86,9.5565,192.238,21.0794,49.02,57,0,5.91011
0.88,10.5425,192.345,22.0712,50.16,57,0,6.46403
0.9,11.5501,192.464,23.0858,51.3,57,0,7.05129
0.92,12.5792,192.597,24.1235,52.44,57,0,7.67947
0.94,13.6295,192.744,25.184,53.58,57,0,8.35232
0.96,14.7004,192.908,26.2674,54.72,57,0,9.06241
0.98,15.7915,193.09,27.3736,55.86,46.3545,0,9.81625
1,16.9001,193.289,28.4999,56.7489,14.25,0,10.6179
1.02,18.0169,193.507,29.6378,57,0,0,11.4518
1.04,19.1325,193.741,30.7776,57,0,0,12.3162
1.06,20.2443,193.993,31.9176,57,0,0,13.2111
1.08,21.3521,194.262,33.0576,57,0,0,14.1308
1.1,22.4552,194.55,34.1977,57,0,0,15.0753
1.12,23.5535,194.855,35.3376,57,0,0,16.0479
1.14,24.6463,195.18,36.4777,57,0,0,17.0407
1.16,25.7333,195.524,37.6178,57,0,0,18.0516
1.18,26.814,195.886,38.7575,57,0,0,19.0831
1.2,27.8879,196.269,39.8977,57,0,0,20.1312
1.22,28.9545,196.671,41.0375,57,0,0,21.1919
1.24,30.0135,197.093,42.1775,57,0,0,22.2643
1.26,31.0644,197.535,43.3176,57,0,0,23.3466
1.28,32.1068,197.997,44.4578,57,0,0,24.4339
1.3,33.1401,198.478,45.5975,57,0,0,25.5239
1.32,34.1641,198.979,46.7375,57,0,0,26.6142
1.34,35.1784,199.499,47.8773,57,0,0,27.7013
1.36,36.1827,200.039,49.0176,57,0,0,28.7824
1.38,37.1766,200.597,50.1574,57,0,0,29.8548
1.4,38.16,201.174,51.2976,57,0,0,30.9156
1.42,39.1326,201.768,52.4373,57,0,0,31.9595
1.44,40.0943,202.38,53.5772,57,0,0,32.9871
1.46,41.0449,203.01,54.7176,57,0,0,33.9967
1.48,41.9844,203.655,55.8572,57,0,0,34.9842
1.5,42.9129,204.317,56.9975,57,0,0,35.9446
1.52,43.8302,204.994,58.1376,57,0,0,36.8773
1.54,44.7366,205.685,59.2774,57,0,0,37.784
1.56,45.6321,206.39,60.4171,57,0,0,38.6605
1.58,46.5169,207.109,61.5572,57,0,0,39.5021
1.6,47.3912,207.841,62.6974,57,0,0,40.3127
1.62,48.2553,208.584,63.8371,57,0,0,41.0925
1.64,49.1095,209.339,64.9771,57,0,0,41.838
1.66,49.9541,210.105,66.1173,57,0,0,42.5394
1.68,50.7894,210.881,67.2574,57,0,0,43.207
1.7,51.6159,211.666,68.3973,57,0,0,43.8412
1.72,52.4338,212.46,69.5372,57,0,0,44.4367
1.74,53.2438,213.262,70.6771,57,0,0,44.9915
1.76,54.0462,214.072,71.8173,57,0,0,45.5113
1.78,54.8415,214.889,72.9574,57,0,0,45.9969
1.8,55.6302,215.712,74.0973,57,0,0,46.4389
1.82,56.4128,216.541,75.2374,57,0,0,46.8391
1.84,57.1897,217.375,76.3772,57,0,0,47.205
1.86,57.9617,218.214,77.5173,57,0,0,47.5355
1.88,58.7291,219.057,78.6573,57,0,0,47.8243
1.9,59.4925,219.904,79.7975,57,0,0,48.0744
1.92,60.2524,220.753,80.9369,57,0,0,48.2905
1.94,61.0095,221.606,82.0775,57,0,0,48.4698
1.96,61.7642,222.46,83.2172,57,0,0,48.6011
1.98,62.5172,223.316,84.3572,57,0,0,48.6982
2,63.269,224.173,85.4973,57,0,0,48.7615
2.02,64.0201,225.03,86.6368,57,0,0,48.7851
2.04,64.7713,225.888,87.7772,57,0,0,48.768
2.06,65.5229,226.745,88.9171,57,0,0,48.7158
2.08,66.2756,227.601,90.0569,57,0,0,48.6277
2.1,67.0299,228.456,91.1971,57,0,0,48.495
2.12,67.7865,229.309,92.3373,57,0,0,48.3228
2.14,68.5459,230.159,93.4771,57,0,0,48.1161
2.16,69.3086,231.006,94.6169,57,0,0,47.8727
2.18,70.0753,231.85,95.7572,57,0,0,47.5862
2.2,70.8464,232.69,96.8974,57,0,0,47.2614
2.22,71.6226,233.525,98.0375,57,0,0,46.9004
2.24,72.4043,234.354,99.1769,57,0,0,46.4991
2.26,73.1921,235.178,100.317,57,0,0,46.0515
2.28,73.9866,235.996,101.457,57,0,0,45.5678
2.3,74.7882,236.807,102.598,57,0,0,45.0483
2.32,75.5974,237.61,103.738,57,0,0,44.4889
2.34,76.4147,238.404,104.877,57,0,0,43.8866
2.36,77.2406,239.19,106.017,57,0,0,43.247
2.38,78.0754,239.966,107.157,57,0,0,42.5687
2.4,78.9197,240.732,108.297,57,0,0,41.8524
2.42,79.7737,241.487,109.437,57,0,0,41.0933
2.44,80.6379,242.231,110.577,57,0,0,40.3003
2.46,81.5125,242.962,111.717,57,0,0,39.4742
2.48,82.3978,243.68,112.857,57,0,0,38.6139
2.5,83.294,244.385,113.997,57,0,0,37.7156
2.52,84.2013,245.075,115.137,57,0,0,36.7842
2.54,85.1199,245.75,116.277,57,0,0,35.825
2.56,86.0499,246.41,117.417,57,0,0,34.8382
2.58,86.9912,247.053,118.557,57,0,0,33.8232
2.6,87.9439,247.679,119.697,57,0,0,32.7848
2.62,88.908,248.287,120.837,57,0,0,31.7272
2.64,89.883,248.878,121.977,57,0,0,30.6522
2.66,90.869,249.449,123.117,57,0,0,29.5585
2.68,91.866,250.002,124.257,57,0,0,28.453
2.7,92.874,250.536,125.397,57,0,0,27.3396
2.72,93.891,251.049,126.536,57,0,0,26.2206
2.74,94.919,251.543,127.677,57,0,0,25.0988
2.76,95.956,252.016,128.817,57,0,0,23.9781
2.78,97.002,252.469,129.957,57,0,0,22.8612
2.8,98.057,252.902,131.097,57,0,0,21.751
2.82,99.12,253.314,132.237,57,0,0,20.6523
2.84,100.19,253.706,133.377,57,0,0,19.5678
2.86,101.268,254.078,134.517,57,0,0,18.4977
2.88,102.352,254.429,135.656,57,0,0,17.4447
2.9,103.443,254.761,136.797,57,0,0,16.4151
2.92,104.539,255.074,137.937,57,0,0,15.4077
2.94,105.641,255.367,139.077,57,0,0,14.4236
2.96,106.747,255.642,140.217,57,0,0,13.4677
2.98,107.858,255.898,141.357,57,0,0,12.5432
3,108.973,256.137,142.497,57,0,0,11.644
3.02,110.091,256.358,143.637,57,0,0,10.7745
3.04,111.212,256.563,144.776,57,0,0,9.93939
3.06,112.337,256.752,145.917,57,0,0,9.13347
3.08,113.463,256.925,147.056,57,0,0,8.35635
3.1,114.592,257.083,148.196,57,0,0,7.62364
3.12,115.723,257.227,149.336,57,0,0,6.91855
3.14,116.856,257.358,150.477,57,0,0,6.24509
3.16,117.99,257.475,151.617,57,0,0,5.60901
3.18,119.125,257.58,152.757,57,0,0,5.00303
3.2,120.261,257.674,153.897,57,0,0,4.42939
3.22,121.398,257.757,155.037,57,0,0,3.89567
3.24,122.536,257.829,156.177,57,0,0,3.39191
3.26,123.674,257.891,157.317,57,0,0,2.92283
3.28,124.813,257.945,158.457,57,0,0,2.49033
3.3,125.952,257.99,159.597,57,0,0,2.08582
3.32,127.091,258.028,160.736,57,0,0,1.71972
3.34,128.231,258.059,161.877,57,0,0,1.38425
3.36,129.37,258.083,163.016,57,0,0,1.08032
3.38,130.51,258.102,164.156,57,0,0,0.820183
3.4,131.65,258.115,165.296,57,0,0,0.587197
3.42,132.79,258.125,166.436,57,0,0,0.392014
3.44,133.93,258.131,167.576,57,0,0,0.230519
3.46,135.07,258.134,168.716,57,0,0,0.103388
3.48,136.21,258.135,169.856,57,0,0,0.0158321
3.5,137.35,258.134,170.996,57,0,0,-0.0433664
3.52,138.49,258.133,172.136,57,0,0,-0.0511854
3.54,139.63,258.132,173.276,57,0,0,-0.0250195
3.56,140.77,258.132,174.416,57,0,0,0.0671834
3.58,141.91,258.136,175.556,57,0,0,0.237171
3.6,143.05,258.142,176.696,57,0,0,0.386354
3.62,144.19,258.151,177.837,57,0,0,0.517596
3.64,145.33,258.163,178.977,57,0,0,0.623474
3.66,146.47,258.176,180.117,57,0,0,0.710896
3.68,147.61,258.191,181.257,57,0,0,0.773282
3.7,148.75,258.207,182.397,57,0,0,0.816046
3.72,149.89,258.224,183.537,57,0,0,0.836247
3.74,151.029,258.24,184.676,57,0,0,0.83602
3.76,152.169,258.257,185.816,57,0,0,0.811812
3.78,153.309,258.273,186.956,57,0,0,0.770096
3.8,154.449,258.288,188.096,57,0,0,0.698441
3.82,155.589,258.301,189.237,57,0,0,0.610767
3.84,156.729,258.312,190.377,57,0,0,0.495777
3.86,157.869,258.321,191.517,57,0,0,0.360616
3.88,159.009,258.326,192.657,57,0,0,0.203076
3.9,160.149,258.329,193.797,57,0,0,0.0186213
3.92,161.289,258.327,194.937,57,0,0,-0.182465
3.94,162.429,258.322,196.077,57,0,0,-0.416304
3.96,163.569,258.311,197.217,57,0,0,-0.668469
3.98,164.709,258.295,198.357,57,0,0,-0.949274
4,165.849,258.273,199.497,57,0,0,-1.25268
4.02,166.988,258.245,200.636,57,0,0,-1.58304
4.04,168.128,258.211,201.777,57,0,0,-1.93739
4.06,169.267,258.168,202.917,57,0,0,-2.32267
4.08,170.406,258.118,204.057,57,0,0,-2.72962
4.1,171.544,258.06,205.196,57,0,0,-3.17599
4.12,172.682,257.992,206.336,57,0,0,-3.64396
4.14,173.82,257.915,207.477,57,0,0,-4.14989
4.16,174.956,257.827,208.616,57,0,0,-4.68554
4.18,176.092,257.729,209.756,57,0,0,-5.2541
4.2,177.227,257.619,210.897,57,0,0,-5.85861
4.22,178.36,257.496,212.036,57,0,0,-6.50058
4.24,179.492,257.361,213.176,57,0,0,-7.18023
4.26,180.622,257.211,214.316,57,0,0,-7.90426
4.28,181.75,257.048,215.456,57,0,0,-8.66688
4.3,182.876,256.868,216.596,57,0,0,-9.47869
4.32,183.999,256.672,217.736,57,0,0,-10.3357
4.34,185.119,256.459,218.876,57,0,0,-11.2424
4.36,186.235,256.228,220.016,57,0,0,-12.1939
4.38,187.347,255.978,221.156,57,0,0,-13.2179
4.4,188.455,255.707,222.297,57,0,0,-14.2856
4.42,189.557,255.415,223.437,57,0,0,-15.4273
4.44,190.653,255.101,224.577,57,0,0,-16.621
4.46,191.742,254.763,225.717,57,0,0,-17.8901
4.48,192.822,254.401,226.856,57,0,0,-19.2176
4.5,193.894,254.013,227.996,57,0,0,-20.6274
4.52,194.956,253.598,229.136,57,0,0,-22.1163
4.54,196.006,253.155,230.276,57,0,0,-23.6711
4.56,197.044,252.682,231.417,57,0,0,-25.325
4.58,198.067,252.18,232.556,57,0,0,-27.0398
4.6,199.074,251.646,233.696,57,0,0,-28.846
4.62,200.064,251.08,234.836,57,0,0,-30.7287
4.64,201.034,250.482,235.976,57,0,0,-32.6761
4.66,201.983,249.849,237.117,57,0,0,-34.7246
4.68,202.908,249.183,238.256,57,0,0,-36.8268
4.7,203.807,248.483,239.396,57,0,0,-38.9911
4.72,204.679,247.749,240.536,57,0,0,-41.2166
4.74,205.522,246.981,241.676,57,0,0,-43.4764
4.76,206.333,246.181,242.815,57,0,0,-45.7737
4.78,207.112,245.348,243.956,57,0,0,-48.0896
4.8,207.856,244.484,245.096,57,0,0,-50.4121
4.82,208.564,243.591,246.235,57,0,0,-52.7262
4.84,209.236,242.671,247.375,57,0,0,-55.0178
4.86,209.871,241.724,248.515,57,0,0,-57.2786
4.88,210.468,240.753,249.655,57,0,0,-59.4877
4.9,211.028,239.76,250.795,57,0,0,-61.6454
4.92,211.551,238.747,251.935,57,0,0,-63.7399
4.94,212.037,237.716,253.075,57,0,0,-65.7444
4.96,212.487,236.668,254.215,57,0,0,-67.6808
4.98,212.903,235.607,255.355,57,0,0,-69.5236
5,213.284,234.533,256.494,57,0,0,-71.2833
5.02,213.634,233.448,257.634,57,0,0,-72.9549
5.04,213.952,232.353,258.775,57,0,0,-74.5311
5.06,214.241,231.25,259.915,57,0,0,-76.0408
5.08,214.503,230.141,261.054,57,0,0,-77.4255
5.1,214.737,229.025,262.195,57,0,0,-78.7446
5.12,214.947,227.905,263.334,57,0,0,-79.9696
5.14,215.134,226.78,264.475,57,0,0,-81.1215
5.16,215.299,225.652,265.615,57,0,0,-82.1879
5.18,215.444,224.521,266.755,57,0,0,-83.1833
5.2,215.569,223.388,267.895,57,0,0,-84.0964
5.22,215.678,222.253,269.035,57,0,0,-84.9436
5.24,215.77,221.117,270.175,57,0,0,-85.7159
5.26,215.848,219.98,271.314,57,0,0,-86.4187
5.28,215.912,218.842,272.454,57,0,0,-87.0595
5.3,215.964,217.703,273.594,57,0,0,-87.6384
5.32,216.006,216.564,274.734,57,0,0,-88.1439
5.34,216.038,215.424,275.875,57,0,0,-88.6009
5.36,216.062,214.284,277.015,57,0,0,-88.9782
5.38,216.078,213.144,278.155,57,0,0,-89.3065
5.4,216.089,212.005,279.294,57,0,0,-89.5619
5.42,216.095,210.865,280.434,57,0,0,-89.7619
5.44,216.098,209.725,281.574,57,0,0,-89.8956
5.46,216.099,208.585,282.714,57,0,0,-89.9692
5.48,216.099,207.445,283.854,57,0,0,-90.018
5.5,216.098,206.305,284.994,57,0,0,-90.0609
5.52,216.096,205.165,286.134,57,0,0,-90.162
5.54,216.092,204.025,287.274,57,0,0,-90.3017
5.56,216.085,202.885,288.414,57,0,0,-90.4925
5.58,216.073,201.745,289.554,57,0,0,-90.7274
5.6,216.056,200.605,290.694,57,0,0,-91.005
5.62,216.033,199.465,291.834,57,0,0,-91.3353
5.64,216.003,198.325,292.975,57,0,0,-91.6978
5.66,215.966,197.186,294.114,57,0,0,-92.128
5.68,215.919,196.047,295.254,57,0,0,-92.5887
5.7,215.863,194.908,296.395,57,0,0,-93.108
5.72,215.796,193.77,297.535,57,0,0,-93.6714
5.74,215.717,192.633,298.675,57,0,0,-94.2838
5.76,215.626,191.497,299.814,57,0,0,-94.9545
5.78,215.52,190.362,300.954,57,0,0,-95.665
5.8,215.401,189.228,302.094,57,0,0,-96.4454
5.82,215.265,188.096,303.234,57,0,0,-97.2737
5.84,215.112,186.966,304.375,57,0,0,-98.1627
5.86,214.941,185.839,305.515,57,0,0,-99.1062
5.88,214.752,184.715,306.654,57,0,0,-100.116
5.9,214.541,183.595,307.794,57,0,0,-101.176
5.92,214.31,182.479,308.934,57,0,0,-102.317
5.94,214.055,181.367,310.075,57,0,0,-103.513
5.96,213.777,180.262,311.214,57,0,0,-104.782
5.98,213.474,179.163,312.354,57,0,0,-106.115
6,213.145,178.072,313.494,57,0,0,-107.515
6.02,212.788,176.989,314.634,57,0,0,-108.988
6.04,212.403,175.916,315.774,57,0,0,-110.519
6.06,211.989,174.854,316.914,57,0,0,-112.123
6.08,211.545,173.804,318.054,57,0,0,-113.777
6.1,211.07,172.768,319.193,57,0,0,-115.51
6.12,210.563,171.746,320.334,57,0,0,-117.287
6.14,210.025,170.742,321.473,57,0,0,-119.114
6.16,209.454,169.755,322.614,57,0,0,-120.99
6.18,208.851,168.787,323.754,57,0,0,-122.895
6.2,208.216,167.841,324.893,57,0,0,-124.836
6.22,207.549,166.916,326.034,57,0,0,-126.794
6.24,206.851,166.015,327.174,57,0,0,-128.765
6.26,206.122,165.139,328.313,57,0,0,-130.738
6.28,205.363,164.288,329.454,57,0,0,-132.705
6.3,204.576,163.464,330.593,57,0,0,-134.655
6.32,203.761,162.666,331.734,57,0,0,-136.582
6.34,202.92,161.897,332.873,57,0,0,-138.482
6.36,202.054,161.155,334.014,57,0,0,-140.335
6.38,201.165,160.442,335.153,57,0,0,-142.15
6.4,200.254,159.757,336.293,57,0,0,-143.91
6.42,199.323,159.099,337.433,57,0,0,-145.618
6.44,198.373,158.469,338.573,57,0,0,-147.273
6.46,197.405,157.867,339.713,57,0,0,-148.864
6.48,196.421,157.291,340.853,57,0,0,-150.409
6.5,195.423,156.741,341.993,57,0,0,-151.875
6.52,194.41,156.216,343.134,57,0,0,-153.288
6.54,193.386,155.716,344.273,57,0,0,-154.641
6.56,192.35,155.24,345.413,57,0,0,-155.931
6.58,191.304,154.787,346.553,57,0,0,-157.169
6.6,190.249,154.356,347.693,57,0,0,-158.347
6.62,189.185,153.946,348.833,57,0,0,-159.481
6.64,188.114,153.557,349.973,57,0,0,-160.549
6.66,187.035,153.187,351.113,57,0,0,-161.58
6.68,185.951,152.836,352.253,57,0,0,-162.548
6.7,184.86,152.503,353.393,57,0,0,-163.48
6.72,183.765,152.188,354.533,57,0,0,-164.365
6.74,182.665,151.889,355.673,57,0,0,-165.215
6.76,181.56,151.606,356.813,57,0,0,-166.017
6.78,180.452,151.339,357.953,57,0,0,-166.793
6.8,179.341,151.085,359.093,57,0,0,-167.518
6.82,178.226,150.846,360.233,57,0,0,-168.219
6.84,177.109,150.62,361.373,57,0,0,-168.883
6.86,175.989,150.407,362.513,57,0,0,-169.52
6.88,174.867,150.205,363.653,57,0,0,-170.127
6.9,173.743,150.016,364.793,57,0,0,-170.71
6.92,172.617,149.837,365.933,57,0,0,-171.262
6.94,171.489,149.67,367.073,57,0,0,-171.797
6.96,170.36,149.512,368.213,57,0,0,-172.297
6.98,169.23,149.364,369.353,57,0,0,-172.784
7,168.098,149.226,370.493,57,0,0,-173.245
7.02,166.966,149.096,371.632,57,0,0,-173.688
7.04,165.832,148.975,372.773,57,0,0,-174.113
7.06,164.698,148.862,373.912,57,0,0,-174.518
7.08,163.562,148.758,375.053,57,0,0,-174.91
7.1,162.427,148.66,376.192,57,0,0,-175.281
7.12,161.29,148.57,377.333,57,0,0,-175.639
7.14,160.153,148.487,378.473,57,0,0,-175.982
7.16,159.016,148.41,379.613,57,0,0,-176.312
7.18,157.878,148.34,380.753,57,0,0,-176.629
7.2,156.74,148.276,381.893,57,0,0,-176.934
7.22,155.601,148.218,383.033,57,0,0,-177.228
7.24,154.462,148.166,384.173,57,0,0,-177.509
7.26,153.323,148.119,385.313,57,0,0,-177.781
7.28,152.184,148.078,386.453,57,0,0,-178.043
7.3,151.045,148.042,387.593,57,0,0,-178.296
7.32,149.905,148.01,388.733,57,0,0,-178.541
7.34,148.765,147.984,389.873,57,0,0,-178.778
7.36,147.626,147.962,391.012,57,0,0,-179.007
7.38,146.486,147.944,392.153,57,0,0,-179.23
7.4,145.346,147.931,393.293,57,0,0,-179.446
7.42,144.206,147.922,394.433,57,0,0,-179.656
7.44,143.066,147.917,395.573,57,0,0,-179.862
7.46,141.926,147.917,396.713,57,0,0,179.976
7.48,140.786,147.918,397.853,57,0,0,179.861
7.5,139.646,147.922,398.993,57,0,0,179.733
7.52,138.506,147.929,400.133,57,0,0,179.582
7.54,137.366,147.939,401.273,57,0,0,179.413
7.56,136.226,147.952,402.413,57,0,0,179.22
7.58,135.086,147.97,403.553,57,0,0,179.01
7.6,133.946,147.991,404.693,57,0,0,178.779
7.62,132.807,148.018,405.833,57,0,0,178.528
7.64,131.667,148.05,406.973,57,0,0,178.26
7.66,130.528,148.087,408.113,57,0,0,177.97
7.68,129.389,148.131,409.252,57,0,0,177.66
7.7,128.25,148.18,410.392,57,0,0,177.333
7.72,127.111,148.237,411.533,57,0,0,176.986
7.74,125.973,148.3,412.673,57,0,0,176.621
7.76,124.835,148.371,413.813,57,0,0,176.24
7.78,123.698,148.45,414.953,57,0,0,175.837
7.8,122.561,148.537,416.093,57,0,0,175.416
7.82,121.425,148.632,417.233,57,0,0,174.979
7.84,120.29,148.736,418.373,57,0,0,174.52
7.86,119.156,148.85,419.512,57,0,0,174.045
7.88,118.022,148.973,420.653,57,0,0,173.553
7.9,116.89,149.106,421.793,57,0,0,173.041
7.92,115.759,149.249,422.933,57,0,0,172.513
7.94,114.63,149.403,424.072,57,0,0,171.969
7.96,113.501,149.567,425.213,57,0,0,171.404
7.98,112.375,149.743,426.353,57,0,0,170.823
8,111.251,149.931,427.492,57,0,0,170.228
8.02,110.128,150.13,428.633,57,0,0,169.616
8.04,109.008,150.342,429.773,57,0,0,168.988
8.06,107.89,150.566,430.913,57,0,0,168.347
8.08,106.775,150.802,432.053,57,0,0,167.692
8.1,105.663,151.052,433.192,57,0,0,167.021
8.12,104.553,151.315,434.333,57,0,0,166.338
8.14,103.447,151.59,435.473,57,0,0,165.645
8.16,102.345,151.88,436.612,57,0,0,164.941
8.18,101.246,152.183,437.752,57,0,0,164.227
8.2,100.151,152.5,438.892,57,0,0,163.506
8.22,99.06,152.83,440.032,57,0,0,162.778
8.24,97.973,153.175,441.173,57,0,0,162.044
8.26,96.891,153.533,442.312,57,0,0,161.306
8.28,95.813,153.905,443.453,57,0,0,160.567
8.3,94.741,154.292,444.592,57,0,0,159.827
8.32,93.673,154.692,445.733,57,0,0,159.088
8.34,92.611,155.105,446.872,57,0,0,158.352
8.36,91.554,155.533,448.013,57,0,0,157.621
8.38,90.503,155.973,449.152,57,0,0,156.899
8.4,89.457,156.427,450.292,57,0,0,156.185
8.42,88.4168,156.894,451.433,57,0,0,155.482
8.44,87.3825,157.373,452.572,57,0,0,154.79
8.46,86.354,157.865,453.713,57,0,0,154.115
8.48,85.3313,158.369,454.853,57,0,0,153.457
8.5,84.3144,158.884,455.993,57,0,0,152.817
8.52,83.3032,159.41,457.132,57,0,0,152.2
8.54,82.2976,159.947,458.272,57,0,0,151.605
8.56,81.2975,160.495,459.413,57,0,0,151.033
8.58,80.3028,161.051,460.552,57,0,0,150.488
8.6,79.3133,161.618,461.693,57,0,0,149.972
8.62,78.3289,162.192,462.832,57,0,0,149.485
8.64,77.3492,162.775,463.972,57,0,0,149.027
8.66,76.374,163.366,465.113,57,0,0,148.604
8.68,75.403,163.963,466.252,57,0,0,148.214
8.7,74.4359,164.567,467.393,57,0,0,147.857
8.72,73.4725,165.176,468.532,57,0,0,147.537
8.74,72.5122,165.79,469.672,57,0,0,147.255
8.76,71.5548,166.409,470.812,57,0,0,147.01
