"time","x","y","position","velocity","acceleration","jerk","heading","curvature","rotation"
0,5.01513,5.68036,0,0,1,0,0,0,132.8
0.02,5.01666,5.67871,0.0022502,0.02,1,0,-179.998,0,132.8
0.04,5.01819,5.67705,0.00450774,0.04,1,0,-179.996,0,132.8
0.06,5.01972,5.6754,0.00675794,0.06,1,0,-179.993,0,132.8
0.08,5.02126,5.67375,0.00901495,0.08,1,0,-179.991,0,132.8
0.1,5.02279,5.67209,0.0112725,0.1,1,0,-179.989,0,132.8
0.12,5.02432,5.67044,0.0135227,0.12,1,0,-179.987,0,132.8
0.14,5.02585,5.66878,0.0157802,0.14,1,0,-179.984,0,132.8
0.16,5.02738,5.66713,0.0180304,0.16,1,0,-179.982,0,132.8
0.18,5.02891,5.66548,0.0202806,0.18,1,0,-179.98,0,132.8
0.2,5.03045,5.66382,0.022545,0.2,1,0,-179.978,0,132.8
0.22,5.03198,5.66217,0.0247952,0.22,1,0,-179.975,0,132.8
0.24,5.03509,5.65881,0.0293736,0.24,1,0,-179.964,0,132.8
0.26,5.03879,5.65482,0.0348151,0.26,1,0,-179.948,0,132.8
0.28,5.04249,5.65083,0.0402566,0.28,1,0,-179.934,0,132.8
0.3,5.0462,5.64684,0.0457049,0.3,1,0,-179.918,0,132.8
0.32,5.04997,5.64278,0.0512454,0.32,1,0,-179.902,0,132.8
0.34,5.0548,5.63759,0.0583351,0.34,1,0,-179.871,0,132.8
0.36,5.05963,5.63239,0.0654322,0.36,1,0,-179.839,0,132.8
0.38,5.06446,5.62721,0.0725147,0.38,1,0,-179.808,0,132.8
0.4,5.06973,5.62156,0.080241,0.4,1,0,-179.767,0,132.8
0.42,5.07547,5.61541,0.0886535,0.42,1,0,-179.716,0,132.8
0.44,5.08122,5.60927,0.0970655,0.44,1,0,-179.665,0,132.8
0.46,5.08733,5.60275,0.106001,0.46,1,0,-179.604,0,132.8
0.48,5.09387,5.59579,0.115552,0.48,1,0,-179.531,0,132.8
0.5,5.10042,5.58884,0.125102,0.5,1,0,-179.458,0,132.8
0.52,5.10753,5.58131,0.135458,0.52,1,0,-179.366,0,132.8
0.54,5.1148,5.57365,0.146019,0.54,1,0,-179.269,0,132.8
0.56,5.12233,5.56574,0.15694,0.56,1,0,-179.163,0,132.8
0.58,5.13026,5.55743,0.168426,0.58,1,0,-179.04,0,132.8
0.6,5.13832,5.54903,0.180068,0.6,1,0,-178.913,0,132.8
0.62,5.14689,5.54015,0.192409,0.62,1,0,-178.762,0,132.8
0.64,5.15554,5.53122,0.204841,0.64,1,0,-178.608,0,132.8
0.66,5.16471,5.52181,0.21798,0.66,1,0,-178.422,0,132.8
0.68,5.17402,5.51233,0.231267,0.68,1,0,-178.232,0,132.8
0.7,5.18378,5.50245,0.245155,0.7,1,0,-178.025,0,132.8
0.72,5.19376,5.49243,0.259297,0.72,1,0,-177.804,0,132.8
0.74,5.2041,5.48212,0.273899,0.74,1,0,-177.557,0,132.8
0.76,5.21479,5.47156,0.288925,0.76,1,0,-177.294,0,132.8
0.78,5.22572,5.46087,0.304214,0.78,1,0,-177.023,0,132.8
0.8,5.23715,5.4498,0.320126,0.8,1,0,-176.707,0,132.8
0.82,5.24882,5.43862,0.336287,0.82,1,0,-176.381,0,132.8
0.84,5.26085,5.42724,0.352847,0.84,1,0,-176.042,0,132.8
0.86,5.27332,5.41559,0.369912,0.86,1,0,-175.66,0,132.8
0.88,5.28609,5.40382,0.387279,0.88,1,0,-175.261,0,132.8
0.9,5.29922,5.39189,0.405019,0.9,1,0,-174.849,0,132.8
0.92,5.31283,5.3797,0.42329,0.92,1,0,-174.397,0,132.8
0.94,5.32679,5.36741,0.441889,0.94,1,0,-173.93,0,132.8
0.96,5.34111,5.355,0.460839,0.96,0.954837,0,-173.447,0,132.8
0.98,5.35588,5.34244,0.480227,0.98,0.714439,0,-172.942,0,132.8
1,5.37105,5.32976,0.499998,0.994471,0.21576,0,-172.424,0,132.8
1.02,5.38646,5.31712,0.519929,1,0,0,-171.902,0,132.8
1.04,5.40204,5.30458,0.539929,1,0,0,-171.385,0,132.8
1.06,5.41773,5.29217,0.559933,1,0,0,-170.879,0,132.8
1.08,5.43352,5.27991,0.579924,1,0,0,-170.399,0,132.8
1.1,5.44942,5.26777,0.599929,1,0,0,-169.938,0,132.8
1.12,5.46542,5.25577,0.619929,1,0,0,-169.515,0,132.8
1.14,5.48149,5.24387,0.639925,1,0,0,-169.137,0,132.8
1.16,5.49764,5.23207,0.659927,1,0,0,-168.8,0,132.8
1.18,5.51386,5.22036,0.679932,1,0,0,-168.513,0,132.8
1.2,5.53013,5.20873,0.699931,1,0,0,-168.299,0,132.8
1.22,5.54643,5.19715,0.719926,1,0,0,-168.147,0,132.8
1.24,5.56276,5.1856,0.739928,1,0,0,-168.047,0,132.8
1.26,5.57911,5.17407,0.759935,1,0,0,-168,0,132.8
1.28,5.59545,5.16255,0.779927,1,0,0,-168.045,0,132.8
1.3,5.61178,5.151,0.799929,1,0,0,-168.145,0,132.8
1.32,5.62809,5.13942,0.819932,1,0,0,-168.29,0,132.8
1.34,5.64436,5.12779,0.839931,1,0,0,-168.474,0,132.8
1.36,5.66058,5.11609,0.85993,1,0,0,-168.729,0,132.8
1.38,5.67675,5.10432,0.879931,1,0,0,-169.019,0,132.8
1.4,5.69286,5.09247,0.899929,1,0.294761,0,-169.331,0,132.8
1.42,5.70886,5.08055,0.919881,0.996212,0.753,0,-169.668,0,132.8
1.44,5.72468,5.06861,0.939702,0.982511,0.998823,0,-170.034,0,132.8
1.46,5.74008,5.05683,0.95909,0.962542,1,0,-170.4,0,132.8
1.48,5.75512,5.04517,0.978121,0.942542,1,0,-170.767,0,132.8
1.5,5.7698,5.03364,0.996787,0.922542,1,0,-171.132,0,132.8
1.52,5.78412,5.02224,1.01509,0.902542,1,0,-171.49,0,132.8
1.54,5.79796,5.01109,1.03286,0.882542,1,0,-171.838,0,132.8
1.56,5.81148,5.00006,1.05031,0.862542,1,0,-172.172,0,132.8
1.58,5.8247,4.98915,1.06745,0.842542,1,0,-172.495,0,132.8
1.6,5.83741,4.97854,1.08401,0.822542,1,0,-172.801,0,132.8
1.62,5.84982,4.96806,1.10025,0.802542,1,0,-173.093,0,132.8
1.64,5.86195,4.95773,1.11618,0.782542,1,0,-173.37,0,132.8
1.66,5.87358,4.94772,1.13153,0.762542,1,0,-173.628,0,132.8
1.68,5.88499,4.93781,1.14664,0.742542,1,0,-173.876,0,132.8
1.7,5.89598,4.9282,1.16124,0.722542,1,0,-174.103,0,132.8
1.72,5.90665,4.91877,1.17548,0.702542,1,0,-174.318,0,132.8
1.74,5.91704,4.90955,1.18937,0.682542,1,0,-174.519,0,132.8
1.76,5.927,4.90063,1.20274,0.662542,1,0,-174.703,0,132.8
1.78,5.93677,4.89184,1.21588,0.642542,1,0,-174.879,0,132.8
1.8,5.94606,4.88342,1.22842,0.622542,1,0,-175.038,0,132.8
1.82,5.95518,4.87511,1.24076,0.602542,1,0,-175.192,0,132.8
1.84,5.96385,4.86718,1.25251,0.582542,1,0,-175.326,0,132.8
1.86,5.9723,4.8594,1.264,0.562542,1,0,-175.451,0,132.8
1.88,5.98042,4.85191,1.27504,0.542542,1,0,-175.565,0,132.8
1.9,5.98816,4.84473,1.2856,0.522542,1,0,-175.667,0,132.8
1.92,5.99584,4.83759,1.29609,0.502542,1,0,-175.767,0,132.8
1.94,6.00282,4.83108,1.30563,0.482542,1,0,-175.847,0,132.8
1.96,6.00979,4.82456,1.31518,0.462542,1,0,-175.926,0,132.8
1.98,6.01642,4.81834,1.32427,0.442542,1,0,-175.996,0,132.8
2,6.02255,4.81258,1.33268,0.422542,1,0,-176.054,0,132.8
2.02,6.02867,4.80681,1.34109,0.402542,1,0,-176.113,0,132.8
2.04,6.03441,4.8014,1.34898,0.382542,1,0,-176.163,0,132.8
2.06,6.03956,4.79652,1.35607,0.362542,1,0,-176.202,0,132.8
2.08,6.04471,4.79165,1.36316,0.342542,1,0,-176.241,0,132.8
2.1,6.04986,4.78677,1.37026,0.322542,1,0,-176.28,0,132.8
2.12,6.05403,4.78281,1.37601,0.302542,1,0,-176.305,0,132.8
2.14,6.05798,4.77906,1.38145,0.282542,1,0,-176.326,0,132.8
2.16,6.06192,4.77531,1.38689,0.262542,1,0,-176.348,0,132.8
2.18,6.06586,4.77156,1.39233,0.242542,1,0,-176.369,0,132.8
2.2,6.06948,4.76812,1.39732,0.222542,1,0,-176.389,0,132.8
2.22,6.07111,4.76657,1.39957,0.202542,1,0,-176.394,0,132.8
2.24,6.07274,4.76502,1.40182,0.182542,1,0,-176.399,0,132.8
2.26,6.07437,4.76346,1.40408,0.162542,1,0,-176.405,0,132.8
2.28,6.076,4.76191,1.40633,0.142542,1,0,-176.41,0,132.8
2.3,6.07764,4.76035,1.40859,0.122542,1,0,-176.415,0,132.8
2.32,6.07927,4.7588,1.41084,0.102542,1,0,-176.42,0,132.8
2.34,6.0809,4.75724,1.4131,0.0825416,1,0,-176.426,0,132.8
2.36,6.08253,4.75569,1.41535,0.0625416,1,0,-176.431,0,132.8
2.38,6.08416,4.75413,1.4176,0.0425416,1,0,-176.436,0,132.8
2.4,6.08579,4.75257,1.41986,0.0225416,1,0,-176.442,0,132.8
2.42,6.08742,4.75102,1.42211,0.00254165,1,0,-176.447,0,132.8
