"time","x","y","position","velocity","acceleration","jerk","heading","curvature","rotation"
0,7.13024,1.07056,0,0,1,0,0,0,90
0.02,7.13008,1.07281,0.00225369,0.02,1,0,4.1674,0,90
0.04,7.12991,1.07506,0.00450811,0.04,1,0,4.1658,0,90
0.06,7.12975,1.0773,0.00676179,0.06,1,0,4.1643,0,90
0.08,7.12958,1.07955,0.00901621,0.08,1,0,4.1628,0,90
0.1,7.12942,1.0818,0.0112699,0.1,1,0,4.1612,0,90
0.12,7.12926,1.08405,0.0135236,0.12,1,0,4.1597,0,90
0.14,7.12909,1.0863,0.015777,0.14,1,0,4.1581,0,90
0.16,7.12893,1.08854,0.0180307,0.16,1,0,4.1566,0,90
0.18,7.12877,1.09079,0.0202844,0.18,1,0,4.1551,0,90
0.2,7.1286,1.09304,0.0225388,0.2,1,0,4.1535,0,90
0.22,7.12844,1.09529,0.0247925,0.22,1,0,4.152,0,90
0.24,7.12811,1.09986,0.0293754,0.24,1,0,4.1476,0,90
0.26,7.12771,1.10529,0.0348171,0.26,1,0,4.1422,0,90
0.28,7.12732,1.11071,0.0402581,0.28,1,0,4.1368,0,90
0.3,7.12693,1.11614,0.0456991,0.3,1,0,4.1314,0,90
0.32,7.12653,1.12167,0.0512435,0.32,1,0,4.1254,0,90
0.34,7.12602,1.12874,0.0583349,0.34,1,0,4.1115,0,90
0.36,7.12551,1.13582,0.0654263,0.36,1,0,4.0975,0,90
0.38,7.125,1.14289,0.0725186,0.38,1,0,4.0835,0,90
0.4,7.12445,1.1506,0.0802442,0.4,1,0,4.0658,0,90
0.42,7.12386,1.15899,0.0886559,0.42,1,0,4.0441,0,90
0.44,7.12326,1.16738,0.0970674,0.44,1,0,4.0223,0,90
0.46,7.12264,1.17629,0.106003,0.46,1,0,3.9965,0,90
0.48,7.12197,1.18581,0.11555,0.48,1,0,3.966,0,90
0.5,7.12132,1.19534,0.125098,0.5,1,0,3.9354,0,90
0.52,7.12061,1.20567,0.135457,0.52,1,0,3.8941,0,90
0.54,7.11989,1.21621,0.146018,0.54,1,0,3.8501,0,90
0.56,7.11916,1.22711,0.156944,0.56,1,0,3.8027,0,90
0.58,7.1184,1.23857,0.168428,0.58,1,0,3.7503,0,90
0.6,7.11765,1.25019,0.180069,0.6,1,0,3.6946,0,90
0.62,7.11686,1.2625,0.192407,0.62,1,0,3.6244,0,90
0.64,7.11608,1.27491,0.204845,0.64,1,0,3.5527,0,90
0.66,7.11527,1.28803,0.217982,0.66,1,0,3.4699,0,90
0.68,7.11448,1.30128,0.231263,0.68,1,0,3.3843,0,90
0.7,7.11367,1.31515,0.245151,0.7,1,0,3.2873,0,90
0.72,7.11287,1.32927,0.2593,0.72,1,0,3.1822,0,90
0.74,7.11207,1.34386,0.273903,0.74,1,0,3.0629,0,90
0.76,7.11128,1.35886,0.28893,0.76,1,0,2.9341,0,90
0.78,7.11052,1.37413,0.304213,0.78,1,0,2.7996,0,90
0.8,7.10976,1.39002,0.320122,0.8,1,0,2.6469,0,90
0.82,7.10903,1.40616,0.336282,0.82,1,0,2.4843,0,90
0.84,7.10834,1.42271,0.352847,0.84,1,0,2.306,0,90
0.86,7.10768,1.43976,0.369909,0.86,1,0,2.1129,0,90
0.88,7.10707,1.45712,0.38728,0.88,1,0,1.9103,0,90
0.9,7.10651,1.47485,0.405019,0.9,1,0,1.6955,0,90
0.92,7.106,1.49311,0.423286,0.92,1,0,1.4611,0,90
0.94,7.10557,1.51171,0.441891,0.94,1,0,1.2175,0,90
0.96,7.10521,1.53066,0.460844,0.96,0.954837,0,0.9653,0,90
0.98,7.10492,1.55004,0.480227,0.98,0.714439,0,0.7053,0,90
1,7.10473,1.56981,0.499997,0.994471,0.21576,0,0.4417,0,90
1.02,7.10462,1.58974,0.519928,1,0,0,0.1812,0,90
1.04,7.1046,1.60974,0.539928,1,0,0,-0.07,0,90
1.06,7.10467,1.62974,0.559928,1,0,0,-0.3054,0,90
1.08,7.10482,1.64974,0.579928,1,0,0,-0.5173,0,90
1.1,7.10503,1.66974,0.59993,1,0,0,-0.7057,0,90
1.12,7.10531,1.68974,0.619932,1,0,0,-0.8703,0,90
1.14,7.10565,1.70973,0.639924,1,0.13294,0,-1.0101,0,90
1.16,7.10602,1.72973,0.659928,1,0.672341,0,-1.1232,0,90
1.18,7.10643,1.74956,0.679762,0.986622,0.925076,0,-1.195,0,90
1.2,7.10684,1.76907,0.699276,0.968542,1,0,-1.2398,0,90
1.22,7.10727,1.78825,0.718461,0.948542,1,0,-1.2626,0,90
1.24,7.10769,1.80708,0.737296,0.928542,1,0,-1.2675,0,90
1.26,7.10809,1.82538,0.7556,0.908542,1,0,-1.251,0,90
1.28,7.10848,1.84332,0.773544,0.888542,1,0,-1.2227,0,90
1.3,7.10885,1.86093,0.791158,0.868542,1,0,-1.1844,0,90
1.32,7.1092,1.87809,0.808322,0.848542,1,0,-1.1329,0,90
1.34,7.10953,1.89481,0.825045,0.828542,1,0,-1.0773,0,90
1.36,7.10983,1.91124,0.841478,0.808542,1,0,-1.0195,0,90
1.38,7.1101,1.92717,0.85741,0.788542,1,0,-0.959,0,90
1.4,7.11036,1.9427,0.872942,0.768542,1,0,-0.8973,0,90
1.42,7.11059,1.95798,0.888224,0.748542,1,0,-0.8348,0,90
1.44,7.11079,1.97262,0.902866,0.728542,1,0,-0.7745,0,90
1.46,7.11098,1.98707,0.917317,0.708542,1,0,-0.7149,0,90
1.48,7.11115,2.00096,0.931208,0.688542,1,0,-0.6577,0,90
1.5,7.1113,2.01456,0.944809,0.668542,1,0,-0.6025,0,90
1.52,7.11143,2.02769,0.957939,0.648542,1,0,-0.5504,0,90
1.54,7.11154,2.04047,0.97072,0.628542,1,0,-0.501,0,90
1.56,7.11165,2.05281,0.98306,0.608542,1,0,-0.4547,0,90
1.58,7.11174,2.06482,0.995071,0.588542,1,0,-0.4104,0,90
1.6,7.11181,2.0763,1.00655,0.568542,1,0,-0.3692,0,90
1.62,7.11188,2.08762,1.01787,0.548542,1,0,-0.3295,0,90
1.64,7.11194,2.09818,1.02843,0.528542,1,0,-0.2969,0,90
1.66,7.11199,2.10874,1.03899,0.508542,1,0,-0.2642,0,90
1.68,7.11203,2.11852,1.04877,0.488542,1,0,-0.2355,0,90
1.7,7.11207,2.12807,1.05832,0.468542,1,0,-0.2079,0,90
1.72,7.1121,2.13749,1.06774,0.448542,1,0,-0.1812,0,90
1.74,7.11213,2.1459,1.07615,0.428542,1,0,-0.1611,0,90
1.76,7.11215,2.15431,1.08456,0.408542,1,0,-0.141,0,90
1.78,7.11217,2.1626,1.09285,0.388542,1,0,-0.1215,0,90
1.8,7.11218,2.16969,1.09994,0.368542,1,0,-0.1078,0,90
1.82,7.11219,2.17678,1.10703,0.348542,1,0,-0.094,0,90
1.84,7.1122,2.18388,1.11413,0.328542,1,0,-0.0802,0,90
1.86,7.11221,2.19012,1.12037,0.308542,1,0,-0.0691,0,90
1.88,7.11222,2.19557,1.12582,0.288542,1,0,-0.0605,0,90
1.9,7.11222,2.20101,1.13126,0.268542,1,0,-0.052,0,90
1.92,7.11222,2.20645,1.1367,0.248542,1,0,-0.0434,0,90
1.94,7.11223,2.21189,1.14214,0.228542,1,0,-0.0349,0,90
1.96,7.11223,2.21465,1.1449,0.208542,1,0,-0.0321,0,90
1.98,7.11223,2.2169,1.14715,0.188542,1,0,-0.0304,0,90
2,7.11223,2.21915,1.1494,0.168542,1,0,-0.0286,0,90
2.02,7.11223,2.22141,1.15166,0.148542,1,0,-0.0269,0,90
2.04,7.11223,2.22366,1.15391,0.128542,1,0,-0.0251,0,90
2.06,7.11223,2.22592,1.15617,0.108542,1,0,-0.0234,0,90
2.08,7.11223,2.22817,1.15842,0.0885417,1,0,-0.0216,0,90
2.1,7.11223,2.23042,1.16067,0.0685417,1,0,-0.0199,0,90
2.12,7.11224,2.23268,1.16293,0.0485417,1,0,-0.0182,0,90
2.14,7.11224,2.23493,1.16518,0.0285417,1,0,-0.0164,0,90
2.16,7.11224,2.23719,1.16744,0.00854167,1,0,-0.0147,0,90
