"time","x","y","position","velocity","acceleration","jerk","heading","curvature","rotation"
0,5.02061,6.75858,0,0,1,0,180,0,132.8
0.02,5.02214,6.75693,0.0022502,0.02,1,0,-179.998,0,132.8
0.04,5.02367,6.75527,0.00450774,0.04,1,0,-179.996,0,132.8
0.06,5.0252,6.75362,0.00675794,0.06,1,0,-179.993,0,132.8
0.08,5.02674,6.75197,0.00901495,0.08,1,0,-179.991,0,132.8
0.1,5.02827,6.75031,0.0112725,0.1,1,0,-179.989,0,132.8
0.12,5.0298,6.74866,0.0135227,0.12,1,0,-179.987,0,132.8
0.14,5.03133,6.747,0.0157802,0.14,1,0,-179.984,0,132.8
0.16,5.03286,6.74535,0.0180304,0.16,1,0,-179.982,0,132.8
0.18,5.03439,6.7437,0.0202806,0.18,1,0,-179.98,0,132.8
0.2,5.03593,6.74204,0.022545,0.2,1,0,-179.978,0,132.8
0.22,5.03746,6.74039,0.0247952,0.22,1,0,-179.975,0,132.8
0.24,5.04057,6.73703,0.0293736,0.24,1,0,-179.964,0,132.8
0.26,5.04427,6.73304,0.0348151,0.26,1,0,-179.948,0,132.8
0.28,5.04797,6.72905,0.0402566,0.28,1,0,-179.934,0,132.8
0.3,5.05168,6.72506,0.0457049,0.3,1,0,-179.918,0,132.8
0.32,5.05545,6.721,0.0512454,0.32,1,0,-179.902,0,132.8
0.34,5.06028,6.71581,0.0583351,0.34,1,0,-179.871,0,132.8
0.36,5.06511,6.71061,0.0654322,0.36,1,0,-179.839,0,132.8
0.38,5.06994,6.70543,0.0725147,0.38,1,0,-179.808,0,132.8
0.4,5.07521,6.69978,0.080241,0.4,1,0,-179.767,0,132.8
0.42,5.08095,6.69363,0.0886535,0.42,1,0,-179.716,0,132.8
0.44,5.0867,6.68749,0.0970655,0.44,1,0,-179.665,0,132.8
0.46,5.09281,6.68097,0.106001,0.46,1,0,-179.604,0,132.8
0.48,5.09935,6.67401,0.115552,0.48,1,0,-179.531,0,132.8
0.5,5.1059,6.66706,0.125102,0.5,1,0,-179.458,0,132.8
0.52,5.11301,6.65953,0.135458,0.52,1,0,-179.366,0,132.8
0.54,5.12028,6.65187,0.146019,0.54,1,0,-179.269,0,132.8
0.56,5.12781,6.64396,0.15694,0.56,1,0,-179.163,0,132.8
0.58,5.13574,6.63565,0.168426,0.58,1,0,-179.04,0,132.8
0.6,5.1438,6.62725,0.180068,0.6,1,0,-178.913,0,132.8
0.62,5.15237,6.61837,0.192409,0.62,1,0,-178.762,0,132.8
0.64,5.16102,6.60944,0.204841,0.64,1,0,-178.608,0,132.8
0.66,5.17019,6.60003,0.21798,0.66,1,0,-178.422,0,132.8
0.68,5.1795,6.59055,0.231267,0.68,1,0,-178.232,0,132.8
0.7,5.18926,6.58067,0.245155,0.7,1,0,-178.025,0,132.8
0.72,5.19924,6.57065,0.259297,0.72,1,0,-177.804,0,132.8
0.74,5.20958,6.56034,0.273899,0.74,1,0,-177.557,0,132.8
0.76,5.22027,6.54978,0.288925,0.76,1,0,-177.294,0,132.8
0.78,5.2312,6.53909,0.304214,0.78,1,0,-177.023,0,132.8
0.8,5.24263,6.52802,0.320126,0.8,1,0,-176.707,0,132.8
0.82,5.2543,6.51684,0.336287,0.82,1,0,-176.381,0,132.8
0.84,5.26633,6.50546,0.352847,0.84,1,0,-176.042,0,132.8
0.86,5.2788,6.49381,0.369912,0.86,1,0,-175.66,0,132.8
0.88,5.29157,6.48204,0.387279,0.88,1,0,-175.261,0,132.8
0.9,5.3047,6.47011,0.405019,0.9,1,0,-174.849,0,132.8
0.92,5.31831,6.45792,0.42329,0.92,1,0,-174.397,0,132.8
0.94,5.33227,6.44563,0.441889,0.94,1,0,-173.93,0,132.8
0.96,5.34659,6.43322,0.460839,0.96,0.954837,0,-173.447,0,132.8
0.98,5.36136,6.42066,0.480227,0.98,0.714439,0,-172.942,0,132.8
1,5.37653,6.40798,0.499998,0.994471,0.21576,0,-172.424,0,132.8
1.02,5.39194,6.39534,0.519929,1,0,0,-171.902,0,132.8
1.04,5.40752,6.3828,0.539929,1,0,0,-171.385,0,132.8
1.06,5.42321,6.37039,0.559933,1,0,0,-170.879,0,132.8
1.08,5.439,6.35813,0.579924,1,0,0,-170.399,0,132.8
1.1,5.4549,6.34599,0.599929,1,0,0,-169.938,0,132.8
1.12,5.4709,6.33399,0.619929,1,0,0,-169.515,0,132.8
1.14,5.48697,6.32209,0.639925,1,0,0,-169.137,0,132.8
1.16,5.50312,6.31029,0.659927,1,0,0,-168.8,0,132.8
1.18,5.51934,6.29858,0.679932,1,0,0,-168.513,0,132.8
1.2,5.53561,6.28695,0.699931,1,0,0,-168.299,0,132.8
1.22,5.55191,6.27537,0.719926,1,0,0,-168.147,0,132.8
1.24,5.56824,6.26382,0.739928,1,0,0,-168.047,0,132.8
1.26,5.58459,6.25229,0.759935,1,0,0,-168,0,132.8
1.28,5.60093,6.24077,0.779927,1,0,0,-168.045,0,132.8
1.3,5.61726,6.22922,0.799929,1,0,0,-168.145,0,132.8
1.32,5.63357,6.21764,0.819932,1,0,0,-168.29,0,132.8
1.34,5.64984,6.20601,0.839931,1,0,0,-168.474,0,132.8
1.36,5.66606,6.19431,0.85993,1,0,0,-168.729,0,132.8
1.38,5.68223,6.18254,0.879931,1,0,0,-169.019,0,132.8
1.4,5.69834,6.17069,0.899929,1,0.294761,0,-169.331,0,132.8
1.42,5.71434,6.15877,0.919881,0.996212,0.753,0,-169.668,0,132.8
1.44,5.73016,6.14683,0.939702,0.982511,0.998823,0,-170.034,0,132.8
1.46,5.74556,6.13505,0.95909,0.962542,1,0,-170.4,0,132.8
1.48,5.7606,6.12339,0.978121,0.942542,1,0,-170.767,0,132.8
1.5,5.77528,6.11186,0.996787,0.922542,1,0,-171.132,0,132.8
1.52,5.7896,6.10046,1.01509,0.902542,1,0,-171.49,0,132.8
1.54,5.80344,6.08931,1.03286,0.882542,1,0,-171.838,0,132.8
1.56,5.81696,6.07828,1.05031,0.862542,1,0,-172.172,0,132.8
1.58,5.83018,6.06737,1.06745,0.842542,1,0,-172.495,0,132.8
1.6,5.84289,6.05676,1.08401,0.822542,1,0,-172.801,0,132.8
1.62,5.8553,6.04628,1.10025,0.802542,1,0,-173.093,0,132.8
1.64,5.86743,6.03595,1.11618,0.782542,1,0,-173.37,0,132.8
1.66,5.87906,6.02594,1.13153,0.762542,1,0,-173.628,0,132.8
1.68,5.89047,6.01603,1.14664,0.742542,1,0,-173.876,0,132.8
1.7,5.90146,6.00642,1.16124,0.722542,1,0,-174.103,0,132.8
1.72,5.91213,5.99699,1.17548,0.702542,1,0,-174.318,0,132.8
1.74,5.92252,5.98777,1.18937,0.682542,1,0,-174.519,0,132.8
1.76,5.93248,5.97885,1.20274,0.662542,1,0,-174.703,0,132.8
1.78,5.94225,5.97006,1.21588,0.642542,1,0,-174.879,0,132.8
1.8,5.95154,5.96164,1.22842,0.622542,1,0,-175.038,0,132.8
1.82,5.96066,5.95333,1.24076,0.602542,1,0,-175.192,0,132.8
1.84,5.96933,5.9454,1.25251,0.582542,1,0,-175.326,0,132.8
1.86,5.97778,5.93762,1.264,0.562542,1,0,-175.451,0,132.8
1.88,5.9859,5.93013,1.27504,0.542542,1,0,-175.565,0,132.8
1.9,5.99364,5.92295,1.2856,0.522542,1,0,-175.667,0,132.8
1.92,6.00132,5.91581,1.29609,0.502542,1,0,-175.767,0,132.8
1.94,6.0083,5.9093,1.30563,0.482542,1,0,-175.847,0,132.8
1.96,6.01527,5.90278,1.31518,0.462542,1,0,-175.926,0,132.8
1.98,6.0219,5.89656,1.32427,0.442542,1,0,-175.996,0,132.8
2,6.02803,5.8908,1.33268,0.422542,1,0,-176.054,0,132.8
2.02,6.03415,5.88503,1.34109,0.402542,1,0,-176.113,0,132.8
2.04,6.03989,5.87962,1.34898,0.382542,1,0,-176.163,0,132.8
2.06,6.04504,5.87474,1.35607,0.362542,1,0,-176.202,0,132.8
2.08,6.05019,5.86987,1.36316,0.342542,1,0,-176.241,0,132.8
2.1,6.05534,5.86499,1.37026,0.322542,1,0,-176.28,0,132.8
2.12,6.05951,5.86103,1.37601,0.302542,1,0,-176.305,0,132.8
2.14,6.06346,5.85728,1.38145,0.282542,1,0,-176.326,0,132.8
2.16,6.0674,5.85353,1.38689,0.262542,1,0,-176.348,0,132.8
2.18,6.07134,5.84978,1.39233,0.242542,1,0,-176.369,0,132.8
2.2,6.07496,5.84634,1.39732,0.222542,1,0,-176.389,0,132.8
2.22,6.07659,5.84479,1.39957,0.202542,1,0,-176.394,0,132.8
2.24,6.07822,5.84324,1.40182,0.182542,1,0,-176.399,0,132.8
2.26,6.07985,5.84168,1.40408,0.162542,1,0,-176.405,0,132.8
2.28,6.08148,5.84013,1.40633,0.142542,1,0,-176.41,0,132.8
2.3,6.08312,5.83857,1.40859,0.122542,1,0,-176.415,0,132.8
2.32,6.08475,5.83702,1.41084,0.102542,1,0,-176.42,0,132.8
2.34,6.08638,5.83546,1.4131,0.0825416,1,0,-176.426,0,132.8
2.36,6.08801,5.83391,1.41535,0.0625416,1,0,-176.431,0,132.8
2.38,6.08964,5.83235,1.4176,0.0425416,1,0,-176.436,0,132.8
2.4,6.09127,5.83079,1.41986,0.0225416,1,0,-176.442,0,132.8
2.42,6.0929,5.82924,1.42211,0.00254165,1,0,-176.447,0,132.8
